0.0,-0.06212
0.0005,-0.060475
0.001,-0.073305
0.0015,-0.083174
0.002,-0.071989
0.0025,-0.044355
0.003,-0.014419
0.0035,0.0082805
0.004,0.051376
0.0045000000000000005,0.12441
0.005000000000000001,0.18823
0.005500000000000001,0.21784
0.006000000000000002,0.22705
0.006500000000000002,0.21488
0.007000000000000003,0.17803
0.007500000000000003,0.12572
0.008000000000000004,0.077694
0.008500000000000004,0.034269
0.009000000000000005,-0.012116
0.009500000000000005,-0.062778
0.010000000000000005,-0.10883
0.010500000000000006,-0.14436
0.011000000000000006,-0.1664
0.011500000000000007,-0.16936
0.012000000000000007,-0.16081
0.012500000000000008,-0.14798
0.013000000000000008,-0.14601
0.013500000000000009,-0.14338
0.014000000000000009,-0.11903
0.01450000000000001,-0.090411
0.01500000000000001,-0.076265
0.01550000000000001,-0.061791
0.01600000000000001,-0.041394
0.01650000000000001,-0.016721
0.01700000000000001,-0.00027255
0.017500000000000012,0.015847
0.018000000000000013,0.041836
0.018500000000000013,0.062561
0.019000000000000013,0.069798
0.019500000000000014,0.071114
0.020000000000000014,0.06618
0.020500000000000015,0.05335
0.021000000000000015,0.046112
0.021500000000000016,0.040849
0.022000000000000016,0.013873
0.022500000000000017,-0.01705
0.023000000000000017,-0.043368
0.023500000000000017,-0.066067
0.024000000000000018,-0.070015
0.02450000000000002,-0.057185
0.02500000000000002,-0.031525
0.02550000000000002,-0.0025755
0.02600000000000002,0.017492
0.02650000000000002,0.026703
0.02700000000000002,0.02769
0.02750000000000002,0.026374
0.02800000000000002,0.025716
0.028500000000000022,0.019136
0.029000000000000022,0.013215
0.029500000000000023,0.010254
0.030000000000000023,0.00071445
0.030500000000000024,-0.0042205
0.031000000000000024,0.00038545
0.03150000000000002,0.013544
0.03200000000000002,0.015518
0.03250000000000002,0.0046625
0.03300000000000002,0.0089385
0.03350000000000002,0.029993
0.03400000000000002,0.041836
0.034500000000000024,0.047428
0.035000000000000024,0.061574
0.035500000000000025,0.06289
0.036000000000000025,0.056968
0.036500000000000025,0.065851
0.037000000000000026,0.06289
0.037500000000000026,0.041836
0.03800000000000003,0.031308
0.03850000000000003,0.035585
0.03900000000000003,0.067824
0.03950000000000003,0.1379
0.04000000000000003,0.1675
0.04050000000000003,0.13132
0.04100000000000003,0.10434
0.04150000000000003,0.11355
0.04200000000000003,0.12178
0.04250000000000003,0.10533
0.04300000000000003,0.073088
0.04350000000000003,0.016176
0.04400000000000003,-0.059159
0.04450000000000003,-0.10916
0.04500000000000003,-0.11541
0.045500000000000033,-0.10028
0.046000000000000034,-0.090082
0.046500000000000034,-0.099622
0.047000000000000035,-0.11837
0.047500000000000035,-0.11245
0.048000000000000036,-0.080871
0.048500000000000036,-0.053895
0.04900000000000004,-0.036131
0.04950000000000004,-0.021985
0.05000000000000004,-0.013103
0.05050000000000004,-0.015406
0.05100000000000004,-0.028893
0.05150000000000004,-0.051922
0.05200000000000004,-0.075608
0.05250000000000004,-0.087779
0.05300000000000004,-0.093043
0.05350000000000004,-0.095346
0.05400000000000004,-0.095675
0.05450000000000004,-0.086793
0.05500000000000004,-0.069357
0.05550000000000004,-0.050935
0.05600000000000004,-0.041394
0.05650000000000004,-0.024288
0.057000000000000044,-0.00060155
0.057500000000000044,0.013215
0.058000000000000045,0.015847
0.058500000000000045,0.012886
0.059000000000000045,0.016505
0.059500000000000046,0.025716
0.060000000000000046,0.021768
0.06050000000000005,-0.0012595
0.06100000000000005,-0.026262
0.06150000000000005,-0.030867
0.06200000000000005,-0.019353
0.06250000000000004,-0.0061935
0.06300000000000004,0.01157
0.06350000000000004,0.015847
0.06400000000000004,-0.0015885
0.06450000000000004,-0.015406
0.06500000000000004,0.020123
0.06550000000000004,0.11421
0.06600000000000004,0.21356
0.06650000000000005,0.29284
0.06700000000000005,0.33758
0.06750000000000005,0.3491
0.06800000000000005,0.33824
0.06850000000000005,0.30633
0.06900000000000005,0.25929
0.06950000000000005,0.18527
0.07000000000000005,0.08855
0.07050000000000005,-0.038105
0.07100000000000005,-0.16805
0.07150000000000005,-0.25391
0.07200000000000005,-0.2845
0.07250000000000005,-0.28483
0.07300000000000005,-0.26838
0.07350000000000005,-0.24996
0.07400000000000005,-0.24733
0.07450000000000005,-0.23911
0.07500000000000005,-0.20785
0.07550000000000005,-0.17101
0.07600000000000005,-0.13877
0.07650000000000005,-0.11015
0.07700000000000005,-0.081529
0.07750000000000005,-0.061133
0.07800000000000006,-0.04271
0.07850000000000006,-0.025604
0.07900000000000006,-0.016064
0.07950000000000006,-0.012774
0.08000000000000006,-0.0055355
0.08050000000000006,0.020123
0.08100000000000006,0.052363
0.08150000000000006,0.074733
0.08200000000000006,0.091181
0.08250000000000006,0.097103
0.08300000000000006,0.099077
0.08350000000000006,0.10533
0.08400000000000006,0.11322
0.08450000000000006,0.11487
0.08500000000000006,0.10467
0.08550000000000006,0.074404
0.08600000000000006,0.031308
0.08650000000000006,0.0010435
0.08700000000000006,-0.020998
0.08750000000000006,-0.047316
0.08800000000000006,-0.061791
0.08850000000000006,-0.053566
0.08900000000000007,-0.046658
0.08950000000000007,-0.071331
0.09000000000000007,-0.086464
0.09050000000000007,-0.077581
0.09100000000000007,-0.071331
0.09150000000000007,-0.063107
0.09200000000000007,-0.0068515
0.09250000000000007,0.048086
0.09300000000000007,0.040191
0.09350000000000007,0.011241
0.09400000000000007,0.011241
0.09450000000000007,0.042822
0.09500000000000007,0.075391
0.09550000000000007,0.07868
0.09600000000000007,0.043809
0.09650000000000007,-0.00060155
0.09700000000000007,-0.0022465
0.09750000000000007,0.03394
0.09800000000000007,0.091839
0.09850000000000007,0.13362
0.09900000000000007,0.12836
0.09950000000000007,0.10467
0.10000000000000007,0.10566
0.10050000000000008,0.11684
0.10100000000000008,0.10928
0.10150000000000008,0.080654
0.10200000000000008,0.03723
0.10250000000000008,-0.013432
0.10300000000000008,-0.069357
0.10350000000000008,-0.11541
0.10400000000000008,-0.14601
0.10450000000000008,-0.1641
0.10500000000000008,-0.17594
0.10550000000000008,-0.18187
0.10600000000000008,-0.16772
0.10650000000000008,-0.13186
0.10700000000000008,-0.095346
0.10750000000000008,-0.081529
0.10800000000000008,-0.084819
0.10850000000000008,-0.078897
0.10900000000000008,-0.058501
0.10950000000000008,-0.028236
0.11000000000000008,-0.0038915
0.11050000000000008,0.0036755
0.11100000000000008,0.00071445
0.11150000000000009,0.0066365
0.11200000000000009,0.01815
0.11250000000000009,0.033611
0.11300000000000009,0.053679
0.11350000000000009,0.062232
0.11400000000000009,0.052034
0.11450000000000009,0.042494
0.11500000000000009,0.048415
0.11550000000000009,0.057297
0.11600000000000009,0.05006
0.11650000000000009,0.029335
0.11700000000000009,0.017821
0.11750000000000009,0.01815
0.11800000000000009,0.020781
0.11850000000000009,0.036572
0.11900000000000009,0.061574
0.11950000000000009,0.068153
0.12000000000000009,0.052034
0.1205000000000001,0.028019
0.1210000000000001,0.013544
0.1215000000000001,0.010254
0.1220000000000001,0.01157
0.1225000000000001,0.0092675
0.1230000000000001,0.01157
0.1235000000000001,0.010912
0.1240000000000001,0.0030175
0.1245000000000001,0.0043335
0.12500000000000008,0.014531
0.12550000000000008,0.014531
0.12600000000000008,-0.0061935
0.12650000000000008,-0.026262
0.12700000000000009,-0.021327
0.12750000000000009,-0.0019175
0.12800000000000009,0.0030175
0.1285000000000001,-0.0022465
0.1290000000000001,0.0049915
0.1295000000000001,0.015518
0.1300000000000001,0.013873
0.1305000000000001,0.00038545
0.1310000000000001,0.00038545
0.1315000000000001,0.0244
0.1320000000000001,0.051047
0.1325000000000001,0.052692
0.1330000000000001,0.041178
0.1335000000000001,0.044138
0.1340000000000001,0.056968
0.1345000000000001,0.052692
0.1350000000000001,0.028348
0.1355000000000001,-0.0022465
0.1360000000000001,-0.03317
0.1365000000000001,-0.060804
0.1370000000000001,-0.070344
0.1375000000000001,-0.053237
0.1380000000000001,-0.032841
0.1385000000000001,-0.02988
0.1390000000000001,-0.037118
0.1395000000000001,-0.035473
0.1400000000000001,-0.021327
0.1405000000000001,-0.0075095
0.1410000000000001,-0.0094835
0.1415000000000001,-0.0061935
0.1420000000000001,0.032953
0.1425000000000001,0.07868
0.1430000000000001,0.093813
0.1435000000000001,0.13197
0.1440000000000001,0.20172
0.1445000000000001,0.22902
0.1450000000000001,0.2027
0.1455000000000001,0.16948
0.1460000000000001,0.14875
0.1465000000000001,0.12474
0.1470000000000001,0.093813
0.1475000000000001,0.0596
0.1480000000000001,0.012886
0.1485000000000001,-0.050606
0.1490000000000001,-0.11607
0.1495000000000001,-0.17035
0.1500000000000001,-0.19009
0.1505000000000001,-0.16673
0.1510000000000001,-0.13943
0.1515000000000001,-0.1368
0.1520000000000001,-0.13285
0.1525000000000001,-0.12758
0.1530000000000001,-0.13055
0.1535000000000001,-0.11673
0.1540000000000001,-0.083503
0.1545000000000001,-0.056856
0.1550000000000001,-0.037447
0.1555000000000001,-0.027907
0.1560000000000001,-0.023959
0.1565000000000001,-0.016393
0.1570000000000001,0.0076225
0.1575000000000001,0.047099
0.1580000000000001,0.066508
0.1585000000000001,0.056639
0.1590000000000001,0.068153
0.15950000000000011,0.1096
0.16000000000000011,0.1277
0.16050000000000011,0.11618
0.16100000000000012,0.11355
0.16150000000000012,0.13296
0.16200000000000012,0.14415
0.16250000000000012,0.11947
0.16300000000000012,0.073417
0.16350000000000012,0.030322
0.16400000000000012,-0.0094835
0.16450000000000012,-0.048961
0.16500000000000012,-0.067712
0.16550000000000012,-0.069028
0.16600000000000012,-0.0812
0.16650000000000012,-0.11081
0.16700000000000012,-0.12791
0.16750000000000012,-0.11179
0.16800000000000012,-0.09732
0.16850000000000012,-0.10225
0.16900000000000012,-0.1039
0.16950000000000012,-0.093701
0.17000000000000012,-0.091069
0.17050000000000012,-0.1016
0.17100000000000012,-0.12166
0.17150000000000012,-0.15588
0.17200000000000013,-0.17068
0.17250000000000013,-0.14798
0.17300000000000013,-0.11837
0.17350000000000013,-0.10094
0.17400000000000013,-0.07791
0.17450000000000013,-0.067383
0.17500000000000013,-0.066725
0.17550000000000013,-0.058501
0.17600000000000013,-0.037118
0.17650000000000013,-0.012774
0.17700000000000013,0.016834
0.17750000000000013,0.074404
0.17800000000000013,0.15566
0.17850000000000013,0.22343
0.17900000000000013,0.25172
0.17950000000000013,0.23297
0.18000000000000013,0.20402
0.18050000000000013,0.21981
0.18100000000000013,0.2254
0.18150000000000013,0.15533
0.18200000000000013,0.062232
0.18250000000000013,-0.0035625
0.18300000000000013,-0.029551
0.18350000000000014,-0.044026
0.18400000000000014,-0.086793
0.18450000000000014,-0.13219
0.18500000000000014,-0.14403
0.18550000000000014,-0.14305
0.18600000000000014,-0.14338
0.18650000000000014,-0.12758
0.18700000000000014,-0.091727
0.18750000000000014,-0.060146
0.18800000000000014,-0.049948
0.18850000000000014,-0.048632
0.18900000000000014,-0.037447
0.18950000000000014,-0.017379
0.19000000000000014,0.0059785
0.19050000000000014,0.019465
0.19100000000000014,0.022756
0.19150000000000014,0.040849
0.19200000000000014,0.084273
0.19250000000000014,0.11059
0.19300000000000014,0.097432
0.19350000000000014,0.092497
0.19400000000000014,0.10631
0.19450000000000014,0.090523
0.19500000000000015,0.063877
0.19550000000000015,0.047428
0.19600000000000015,0.039204
0.19650000000000015,0.03723
0.19700000000000015,0.032624
0.19750000000000015,0.023742
0.19800000000000015,0.0076225
0.19850000000000015,-0.0081675
0.19900000000000015,-0.0108
0.19950000000000015,-0.020011
0.20000000000000015,-0.042052
0.20050000000000015,-0.068699
0.20100000000000015,-0.09074
0.20150000000000015,-0.098307
0.20200000000000015,-0.092056
0.20250000000000015,-0.079884
0.20300000000000015,-0.066725
0.20350000000000015,-0.055211
0.20400000000000015,-0.048303
0.20450000000000015,-0.041723
0.20500000000000015,-0.028893
0.20550000000000015,-0.013103
0.20600000000000016,-0.00060155
0.20650000000000016,0.0026885
0.20700000000000016,0.0059785
0.20750000000000016,0.01815
0.20800000000000016,0.031966
0.20850000000000016,0.039862
0.20900000000000016,0.036572
0.20950000000000016,0.034269
0.21000000000000016,0.041836
0.21050000000000016,0.05006
0.21100000000000016,0.060587
0.21150000000000016,0.068153
0.21200000000000016,0.072101
0.21250000000000016,0.073088
0.21300000000000016,0.061574
0.21350000000000016,0.05006
0.21400000000000016,0.034269
0.21450000000000016,0.00038545
0.21500000000000016,-0.030209
0.21550000000000016,-0.029222
0.21600000000000016,-0.0061935
0.21650000000000016,0.0076225
0.21700000000000016,0.0043335
0.21750000000000017,0.00071445
0.21800000000000017,0.0059785
0.21850000000000017,0.030322
0.21900000000000017,0.090523
0.21950000000000017,0.13461
0.22000000000000017,0.15336
0.22050000000000017,0.17803
0.22100000000000017,0.18691
0.22150000000000017,0.16783
0.22200000000000017,0.1277
0.22250000000000017,0.10171
0.22300000000000017,0.072101
0.22350000000000017,0.033611
0.22400000000000017,0.0066365
0.22450000000000017,-0.02988
0.22500000000000017,-0.087451
0.22550000000000017,-0.14272
0.22600000000000017,-0.17101
0.22650000000000017,-0.16377
0.22700000000000017,-0.14568
0.22750000000000017,-0.14864
0.22800000000000017,-0.15028
0.22850000000000018,-0.14338
0.22900000000000018,-0.14864
0.22950000000000018,-0.15489
0.23000000000000018,-0.13186
0.23050000000000018,-0.092385
0.23100000000000018,-0.053895
0.23150000000000018,-0.0012595
0.23200000000000018,0.049731
0.23250000000000018,0.059929
0.23300000000000018,0.040191
0.23350000000000018,0.061903
0.23400000000000018,0.10401
0.23450000000000018,0.12375
0.23500000000000018,0.15994
0.23550000000000018,0.21652
0.23600000000000018,0.23132
0.23650000000000018,0.17244
0.23700000000000018,0.086576
0.23750000000000018,0.028348
0.23800000000000018,-0.0084965
0.23850000000000018,-0.048961
0.23900000000000018,-0.11245
0.23950000000000018,-0.18154
0.24000000000000019,-0.23417
0.24050000000000019,-0.24634
0.2410000000000002,-0.22924
0.2415000000000002,-0.20654
0.2420000000000002,-0.18713
0.2425000000000002,-0.16673
0.2430000000000002,-0.13614
0.2435000000000002,-0.1141
0.2440000000000002,-0.10423
0.2445000000000002,-0.094688
0.2450000000000002,-0.080213
0.2455000000000002,-0.060146
0.2460000000000002,-0.047645
0.2465000000000002,-0.041065
0.2470000000000002,-0.031525
0.2475000000000002,-0.020011
0.2480000000000002,5.6451e-05
0.2485000000000002,0.045125
0.2490000000000002,0.087563
0.2495000000000002,0.093484
0.25000000000000017,0.091839
0.25050000000000017,0.10533
0.25100000000000017,0.13757
0.25150000000000017,0.1731
0.25200000000000017,0.2004
0.25250000000000017,0.20928
0.25300000000000017,0.19645
0.25350000000000017,0.17244
0.25400000000000017,0.13428
0.25450000000000017,0.075391
0.25500000000000017,0.032295
0.25550000000000017,0.010912
0.25600000000000017,-0.011787
0.2565000000000002,-0.053566
0.2570000000000002,-0.10982
0.2575000000000002,-0.13581
0.2580000000000002,-0.11739
0.2585000000000002,-0.094688
0.2590000000000002,-0.089753
0.2595000000000002,-0.082187
0.2600000000000002,-0.065738
0.2605000000000002,-0.056856
0.2610000000000002,-0.054224
0.2615000000000002,-0.047974
0.2620000000000002,-0.04271
0.2625000000000002,-0.02692
0.2630000000000002,0.023413
0.2635000000000002,0.090852
0.2640000000000002,0.11355
0.2645000000000002,0.096116
0.2650000000000002,0.083615
0.2655000000000002,0.094471
0.2660000000000002,0.10631
0.2665000000000002,0.0948
0.2670000000000002,0.062232
0.2675000000000002,0.029993
0.2680000000000002,0.018479
0.2685000000000002,0.024729
0.2690000000000002,0.039533
0.2695000000000002,0.039204
0.2700000000000002,-0.0075095
0.2705000000000002,-0.075608
0.2710000000000002,-0.10225
0.2715000000000002,-0.099622
0.2720000000000002,-0.1062
0.2725000000000002,-0.10258
0.2730000000000002,-0.076923
0.2735000000000002,-0.046658
0.2740000000000002,-0.020011
0.2745000000000002,-0.0061935
0.2750000000000002,-0.0108
0.2755000000000002,-0.0091545
0.2760000000000002,0.0036755
0.2765000000000002,0.012886
0.2770000000000002,0.014202
0.2775000000000002,0.0089385
0.2780000000000002,0.011241
0.2785000000000002,0.015518
0.2790000000000002,0.016176
0.2795000000000002,0.018808
0.2800000000000002,0.023084
0.2805000000000002,0.037559
0.2810000000000002,0.05006
0.2815000000000002,0.058613
0.2820000000000002,0.070456
0.2825000000000002,0.0948
0.2830000000000002,0.13099
0.2835000000000002,0.17342
0.2840000000000002,0.18297
0.2845000000000002,0.14349
0.2850000000000002,0.094142
0.2855000000000002,0.075062
0.2860000000000002,0.069798
0.2865000000000002,0.034927
0.2870000000000002,-0.028236
0.2875000000000002,-0.079884
0.2880000000000002,-0.10225
0.2885000000000002,-0.11048
0.2890000000000002,-0.11344
0.2895000000000002,-0.10028
0.2900000000000002,-0.085148
0.2905000000000002,-0.075608
0.2910000000000002,-0.056856
0.2915000000000002,-0.034157
0.2920000000000002,-0.027907
0.2925000000000002,-0.034486
0.2930000000000002,-0.049619
0.2935000000000002,-0.065409
0.2940000000000002,-0.069686
0.2945000000000002,-0.067712
0.2950000000000002,-0.058501
0.2955000000000002,-0.049619
0.2960000000000002,-0.043368
0.2965000000000002,-0.035802
0.2970000000000002,-0.025933
0.2975000000000002,-0.018695
0.2980000000000002,-0.017379
0.2985000000000002,-0.012445
0.2990000000000002,0.013215
0.2995000000000002,0.061574
0.3000000000000002,0.090523
0.3005000000000002,0.10434
0.3010000000000002,0.14184
0.3015000000000002,0.19678
0.3020000000000002,0.23165
0.3025000000000002,0.21389
0.3030000000000002,0.15928
0.3035000000000002,0.11421
0.3040000000000002,0.079338
0.3045000000000002,0.033611
0.3050000000000002,-0.017708
0.3055000000000002,-0.06837
0.3060000000000002,-0.1016
0.3065000000000002,-0.13318
0.3070000000000002,-0.18219
0.3075000000000002,-0.21114
0.3080000000000002,-0.19404
0.3085000000000002,-0.15621
0.3090000000000002,-0.12594
0.3095000000000002,-0.12068
0.3100000000000002,-0.12726
0.3105000000000002,-0.12364
0.3110000000000002,-0.10324
0.3115000000000002,-0.071002
0.3120000000000002,-0.039421
0.3125000000000002,-0.018366
0.3130000000000002,-0.0078385
0.3135000000000002,0.0013725
0.3140000000000002,0.016834
0.3145000000000002,0.034598
0.3150000000000002,0.043151
0.3155000000000002,0.023742
0.3160000000000002,0.0023595
0.3165000000000002,0.0013725
0.3170000000000002,0.0036755
0.3175000000000002,0.0036755
0.3180000000000002,0.026703
0.3185000000000002,0.062561
0.31900000000000023,0.082299
0.31950000000000023,0.093813
0.32000000000000023,0.10204
0.32050000000000023,0.12342
0.32100000000000023,0.13329
0.32150000000000023,0.11322
0.32200000000000023,0.081312
0.32250000000000023,0.039533
0.32300000000000023,-0.0081675
0.32350000000000023,-0.044026
0.32400000000000023,-0.069357
0.32450000000000023,-0.096991
0.32500000000000023,-0.11607
0.32550000000000023,-0.10489
0.32600000000000023,-0.069686
0.32650000000000023,-0.041065
0.32700000000000023,-0.028236
0.32750000000000024,-0.020669
0.32800000000000024,0.0017015
0.32850000000000024,0.026045
0.32900000000000024,0.040849
0.32950000000000024,0.043809
0.33000000000000024,0.059929
0.33050000000000024,0.089208
0.33100000000000024,0.10039
0.33150000000000024,0.092168
0.33200000000000024,0.079667
0.33250000000000024,0.11257
0.33300000000000024,0.16191
0.33350000000000024,0.14053
0.33400000000000024,0.078351
0.33450000000000024,0.044796
0.33500000000000024,0.031308
0.33550000000000024,0.0049915
0.33600000000000024,-0.019682
0.33650000000000024,-0.043039
0.33700000000000024,-0.095675
0.33750000000000024,-0.14798
0.33800000000000024,-0.14436
0.33850000000000025,-0.075608
0.33900000000000025,-0.011787
0.33950000000000025,-0.016721
0.34000000000000025,-0.05883
0.34050000000000025,-0.07495
0.34100000000000025,-0.05225
0.34150000000000025,-0.02692
0.34200000000000025,-0.022972
0.34250000000000025,-0.031525
0.34300000000000025,-0.032841
0.34350000000000025,0.0063075
0.34400000000000025,0.08197
0.34450000000000025,0.15073
0.34500000000000025,0.18527
0.34550000000000025,0.18691
0.34600000000000025,0.18757
0.34650000000000025,0.21027
0.34700000000000025,0.20895
0.34750000000000025,0.14579
0.34800000000000025,0.057297
0.34850000000000025,-0.035144
0.34900000000000025,-0.14272
0.34950000000000025,-0.23384
0.35000000000000026,-0.29306
0.35050000000000026,-0.32234
0.35100000000000026,-0.30326
0.35150000000000026,-0.25292
0.35200000000000026,-0.22299
0.35250000000000026,-0.21016
0.35300000000000026,-0.17792
0.35350000000000026,-0.13712
0.35400000000000026,-0.10949
0.35450000000000026,-0.10324
0.35500000000000026,-0.10094
0.35550000000000026,-0.086464
0.35600000000000026,-0.064093
0.35650000000000026,-0.046329
0.35700000000000026,-0.034157
0.35750000000000026,-0.022972
0.35800000000000026,-0.0052065
0.35850000000000026,0.030322
0.35900000000000026,0.061574
0.35950000000000026,0.072101
0.36000000000000026,0.08197
0.36050000000000026,0.11257
0.36100000000000027,0.14119
0.36150000000000027,0.14941
0.36200000000000027,0.13921
0.36250000000000027,0.11191
0.36300000000000027,0.087892
0.36350000000000027,0.081312
0.36400000000000027,0.076049
0.36450000000000027,0.054665
0.36500000000000027,0.019465
0.36550000000000027,-0.020998
0.36600000000000027,-0.03975
0.36650000000000027,-0.037118
0.36700000000000027,-0.033828
0.36750000000000027,-0.035473
0.36800000000000027,-0.031196
0.36850000000000027,-0.024288
0.36900000000000027,-0.020998
0.3695000000000003,-0.026262
0.3700000000000003,-0.030209
0.3705000000000003,-0.026262
0.3710000000000003,-0.0108
0.3715000000000003,0.0066365
0.3720000000000003,0.016505
0.3725000000000003,0.029993
0.3730000000000003,0.055323
0.3735000000000003,0.10072
0.3740000000000003,0.16948
0.3745000000000003,0.23396
0.3750000000000003,0.23856
0.3755000000000003,0.21027
0.3760000000000003,0.19349
0.3765000000000003,0.18264
0.3770000000000003,0.1504
0.3775000000000003,0.10467
0.3780000000000003,0.047428
0.3785000000000003,-0.021985
0.3790000000000003,-0.092385
0.3795000000000003,-0.12758
0.3800000000000003,-0.12495
0.3805000000000003,-0.13186
0.3810000000000003,-0.15785
0.3815000000000003,-0.16114
0.3820000000000003,-0.13219
0.3825000000000003,-0.10916
0.3830000000000003,-0.099294
0.3835000000000003,-0.078568
0.3840000000000003,-0.057843
0.3845000000000003,-0.050277
0.3850000000000003,-0.055211
0.3855000000000003,-0.05883
0.3860000000000003,-0.05225
0.3865000000000003,-0.043039
0.3870000000000003,-0.035802
0.3875000000000003,-0.030538
0.3880000000000003,-0.025604
0.3885000000000003,-0.011129
0.3890000000000003,0.0089385
0.3895000000000003,0.02111
0.3900000000000003,0.017492
0.3905000000000003,0.0066365
0.3910000000000003,0.0046625
0.3915000000000003,0.014202
0.3920000000000003,0.023742
0.3925000000000003,0.031308
0.3930000000000003,0.039204
0.3935000000000003,0.06914
0.3940000000000003,0.1096
0.3945000000000003,0.12934
0.3950000000000003,0.13757
0.3955000000000003,0.1379
0.3960000000000003,0.12342
0.3965000000000003,0.12934
0.3970000000000003,0.16717
0.3975000000000003,0.20303
0.3980000000000003,0.19908
0.3985000000000003,0.17902
0.3990000000000003,0.18132
0.3995000000000003,0.18297
0.4000000000000003,0.16783
0.4005000000000003,0.16652
0.4010000000000003,0.1675
0.4015000000000003,0.12803
0.4020000000000003,0.055652
0.4025000000000003,0.0059785
0.4030000000000003,-0.019353
0.4035000000000003,-0.074621
0.4040000000000003,-0.15357
0.4045000000000003,-0.24108
0.4050000000000003,-0.30852
0.4055000000000003,-0.3355
0.4060000000000003,-0.32793
0.4065000000000003,-0.33188
0.4070000000000003,-0.34536
0.4075000000000003,-0.33615
0.4080000000000003,-0.29898
0.4085000000000003,-0.24766
0.4090000000000003,-0.19996
0.4095000000000003,-0.16509
0.4100000000000003,-0.13351
0.4105000000000003,-0.10719
0.4110000000000003,-0.087122
0.4115000000000003,-0.075936
0.4120000000000003,-0.063765
0.4125000000000003,-0.045013
0.4130000000000003,-0.028564
0.4135000000000003,-0.018366
0.4140000000000003,-0.0081675
0.4145000000000003,-0.0065225
0.4150000000000003,-0.0052065
0.4155000000000003,0.017492
0.4160000000000003,0.089866
0.4165000000000003,0.15632
0.4170000000000003,0.16257
0.4175000000000003,0.14184
0.4180000000000003,0.13658
0.4185000000000003,0.13987
0.4190000000000003,0.12243
0.4195000000000003,0.090194
0.4200000000000003,0.042822
0.4205000000000003,-0.0075095
0.4210000000000003,-0.038434
0.4215000000000003,-0.044684
0.4220000000000003,-0.030538
0.4225000000000003,-0.013103
0.4230000000000003,-0.017379
0.4235000000000003,-0.035473
0.4240000000000003,-0.034486
0.4245000000000003,-0.011129
0.4250000000000003,0.017492
0.4255000000000003,0.038217
0.4260000000000003,0.039862
0.4265000000000003,0.03723
0.4270000000000003,0.04677
0.4275000000000003,0.056968
0.4280000000000003,0.048086
0.4285000000000003,0.034927
0.4290000000000003,0.029006
0.4295000000000003,0.024729
0.4300000000000003,0.026374
0.4305000000000003,0.04348
0.4310000000000003,0.06914
0.4315000000000003,0.082299
0.43200000000000033,0.072759
0.43250000000000033,0.056968
0.43300000000000033,0.049073
0.43350000000000033,0.039204
0.43400000000000033,0.02769
0.43450000000000033,0.015189
0.43500000000000033,-0.0032335
0.43550000000000033,-0.012116
0.43600000000000033,0.00038545
0.43650000000000033,0.019794
0.43700000000000033,0.030651
0.43750000000000033,0.035585
0.43800000000000033,0.053679
0.43850000000000033,0.081641
0.43900000000000033,0.095458
0.43950000000000033,0.083615
0.44000000000000034,0.073088
0.44050000000000034,0.075391
0.44100000000000034,0.07868
0.44150000000000034,0.059271
0.44200000000000034,0.022097
0.44250000000000034,-0.0045495
0.44300000000000034,-0.019353
0.44350000000000034,-0.040079
0.44400000000000034,-0.058172
0.44450000000000034,-0.063765
0.44500000000000034,-0.060475
0.44550000000000034,-0.062449
0.44600000000000034,-0.065409
0.44650000000000034,-0.069686
0.44700000000000034,-0.073305
0.44750000000000034,-0.069028
0.44800000000000034,-0.057514
0.44850000000000034,-0.047974
0.44900000000000034,-0.039092
0.44950000000000034,-0.034486
0.45000000000000034,-0.037118
0.45050000000000034,-0.037118
0.45100000000000035,-0.026262
0.45150000000000035,-0.01705
0.45200000000000035,-0.017379
0.45250000000000035,-0.017379
0.45300000000000035,-0.0022465
0.45350000000000035,0.041178
0.45400000000000035,0.12737
0.45450000000000035,0.24646
0.45500000000000035,0.31653
0.45550000000000035,0.31061
0.45600000000000035,0.28067
0.45650000000000035,0.2606
0.45700000000000035,0.24613
0.45750000000000035,0.21882
0.45800000000000035,0.16553
0.45850000000000035,0.064864
0.45900000000000035,-0.073963
0.45950000000000035,-0.20029
0.46000000000000035,-0.28187
0.46050000000000035,-0.31773
0.46100000000000035,-0.30424
0.46150000000000035,-0.26838
0.46200000000000035,-0.23944
0.46250000000000036,-0.21838
0.46300000000000036,-0.20489
0.46350000000000036,-0.19601
0.46400000000000036,-0.17397
0.46450000000000036,-0.15127
0.46500000000000036,-0.12923
0.46550000000000036,-0.10521
0.46600000000000036,-0.087779
0.46650000000000036,-0.081529
0.46700000000000036,-0.077581
0.46750000000000036,-0.064422
0.46800000000000036,-0.041065
0.46850000000000036,-0.015077
0.46900000000000036,0.015518
0.46950000000000036,0.049731
0.47000000000000036,0.067166
0.47050000000000036,0.076707
0.47100000000000036,0.087234
0.47150000000000036,0.089208
0.47200000000000036,0.081312
0.47250000000000036,0.069469
0.47300000000000036,0.060587
0.47350000000000037,0.057297
0.47400000000000037,0.05631
0.47450000000000037,0.057955
0.47500000000000037,0.063219
0.47550000000000037,0.057955
0.47600000000000037,0.034598
0.47650000000000037,0.010583
0.47700000000000037,-0.0012595
0.47750000000000037,-0.011787
0.47800000000000037,-0.020998
0.47850000000000037,-0.025933
0.47900000000000037,-0.031525
0.47950000000000037,-0.038105
0.48000000000000037,-0.039421
0.48050000000000037,-0.02988
0.48100000000000037,-0.016064
0.48150000000000037,-0.015406
0.4820000000000004,-0.023301
0.4825000000000004,-0.026262
0.4830000000000004,-0.017379
0.4835000000000004,0.032624
0.4840000000000004,0.088879
0.4845000000000004,0.096774
0.4850000000000004,0.079009
0.4855000000000004,0.077694
0.4860000000000004,0.079667
0.4865000000000004,0.052363
0.4870000000000004,0.020123
0.4875000000000004,-0.012116
0.4880000000000004,-0.047974
0.4885000000000004,-0.057185
0.4890000000000004,-0.036131
0.4895000000000004,-0.0094835
0.4900000000000004,-0.0038915
0.4905000000000004,-0.01705
0.4910000000000004,-0.0108
0.4915000000000004,0.0046625
0.4920000000000004,0.00071445
0.4925000000000004,-0.0048775
0.4930000000000004,0.016505
0.4935000000000004,0.044467
0.4940000000000004,0.060587
0.4945000000000004,0.068482
0.4950000000000004,0.079667
0.4955000000000004,0.098748
0.4960000000000004,0.13066
0.4965000000000004,0.1448
0.4970000000000004,0.12276
0.4975000000000004,0.096774
0.4980000000000004,0.078351
0.4985000000000004,0.05335
0.4990000000000004,0.023742
0.4995000000000004,-0.0091545
0.5000000000000003,-0.035802
0.5005000000000003,-0.049948
0.5010000000000002,-0.069357
0.5015000000000002,-0.1016
0.5020000000000001,-0.1187
0.5025000000000001,-0.11739
0.503,-0.10883
0.5035,-0.093372
0.5039999999999999,-0.077581
0.5044999999999998,-0.065738
0.5049999999999998,-0.056527
0.5054999999999997,-0.04929
0.5059999999999997,-0.046329
0.5064999999999996,-0.045671
0.5069999999999996,-0.047974
0.5074999999999995,-0.051593
0.5079999999999995,-0.046987
0.5084999999999994,-0.03646
0.5089999999999993,-0.023301
0.5094999999999993,-0.0094835
0.5099999999999992,0.0072935
0.5104999999999992,0.017492
0.5109999999999991,0.015847
0.5114999999999991,0.010254
0.511999999999999,0.0046625
0.512499999999999,0.025058
0.5129999999999989,0.068482
0.5134999999999988,0.092168
0.5139999999999988,0.095787
0.5144999999999987,0.11454
0.5149999999999987,0.17112
0.5154999999999986,0.21191
0.5159999999999986,0.18922
0.5164999999999985,0.13954
0.5169999999999985,0.11224
0.5174999999999984,0.10664
0.5179999999999984,0.096445
0.5184999999999983,0.055652
0.5189999999999982,-0.00027255
0.5194999999999982,-0.042052
0.5199999999999981,-0.079226
0.5204999999999981,-0.11772
0.520999999999998,-0.13614
0.521499999999998,-0.13712
0.5219999999999979,-0.13416
0.5224999999999979,-0.12594
0.5229999999999978,-0.12429
0.5234999999999977,-0.13351
0.5239999999999977,-0.1437
0.5244999999999976,-0.13219
0.5249999999999976,-0.10061
0.5254999999999975,-0.074292
0.5259999999999975,-0.064751
0.5264999999999974,-0.061133
0.5269999999999974,-0.050606
0.5274999999999973,-0.033828
0.5279999999999972,-0.021656
0.5284999999999972,-0.021985
0.5289999999999971,-0.022314
0.5294999999999971,-0.011129
0.529999999999997,0.0010435
0.530499999999997,0.0059785
0.5309999999999969,0.01815
0.5314999999999969,0.025387
0.5319999999999968,0.018808
0.5324999999999968,0.017492
0.5329999999999967,0.032624
0.5334999999999966,0.049073
0.5339999999999966,0.058942
0.5344999999999965,0.058284
0.5349999999999965,0.081312
0.5354999999999964,0.13362
0.5359999999999964,0.15763
0.5364999999999963,0.12671
0.5369999999999963,0.078351
0.5374999999999962,0.076378
0.5379999999999961,0.12309
0.5384999999999961,0.14283
0.538999999999996,0.10072
0.539499999999996,0.042494
0.5399999999999959,0.0020305
0.5404999999999959,-0.051922
0.5409999999999958,-0.11772
0.5414999999999958,-0.13581
0.5419999999999957,-0.094688
0.5424999999999957,-0.079555
0.5429999999999956,-0.098307
0.5434999999999955,-0.086135
0.5439999999999955,-0.039421
0.5444999999999954,-0.01705
0.5449999999999954,-0.020669
0.5454999999999953,-0.02988
0.5459999999999953,-0.052908
0.5464999999999952,-0.076594
0.5469999999999952,-0.068699
0.5474999999999951,-0.017379
0.547999999999995,0.029006
0.548499999999995,0.038875
0.5489999999999949,0.024071
0.5494999999999949,0.0023595
0.5499999999999948,-0.0025755
0.5504999999999948,0.0020305
0.5509999999999947,0.0010435
0.5514999999999947,-0.013432
0.5519999999999946,-0.034486
0.5524999999999946,-0.050277
0.5529999999999945,-0.051593
0.5534999999999944,-0.057843
0.5539999999999944,-0.090411
0.5544999999999943,-0.10883
0.5549999999999943,-0.092056
0.5554999999999942,-0.066067
0.5559999999999942,-0.044026
0.5564999999999941,-0.032183
0.556999999999994,-0.02034
0.557499999999994,-0.0055355
0.557999999999994,-0.00093055
0.5584999999999939,0.0036755
0.5589999999999938,0.013873
0.5594999999999938,0.022426
0.5599999999999937,0.020781
0.5604999999999937,0.0069655
0.5609999999999936,-0.0012595
0.5614999999999936,0.013215
0.5619999999999935,0.028677
0.5624999999999934,0.026045
0.5629999999999934,0.029006
0.5634999999999933,0.041178
0.5639999999999933,0.051047
0.5644999999999932,0.049073
0.5649999999999932,0.031966
0.5654999999999931,0.012228
0.5659999999999931,0.0036755
0.566499999999993,0.0010435
0.566999999999993,0.0053205
0.5674999999999929,0.011241
0.5679999999999928,0.010254
0.5684999999999928,0.0066365
0.5689999999999927,0.0053205
0.5694999999999927,0.016834
0.5699999999999926,0.032953
0.5704999999999926,0.034927
0.5709999999999925,0.022756
0.5714999999999925,0.017163
0.5719999999999924,0.019794
0.5724999999999923,0.025387
0.5729999999999923,0.028019
0.5734999999999922,0.028348
0.5739999999999922,0.028019
0.5744999999999921,0.029335
0.5749999999999921,0.036901
0.575499999999992,0.044467
0.575999999999992,0.044796
0.5764999999999919,0.041178
0.5769999999999919,0.03723
0.5774999999999918,0.037888
0.5779999999999917,0.039204
0.5784999999999917,0.039204
0.5789999999999916,0.05006
0.5794999999999916,0.062561
0.5799999999999915,0.065193
0.5804999999999915,0.059271
0.5809999999999914,0.054665
0.5814999999999914,0.057955
0.5819999999999913,0.065851
0.5824999999999912,0.067824
0.5829999999999912,0.072101
0.5834999999999911,0.089208
0.5839999999999911,0.11059
0.584499999999991,0.1096
0.584999999999991,0.10302
0.5854999999999909,0.12901
0.5859999999999909,0.15796
0.5864999999999908,0.14744
0.5869999999999908,0.10072
0.5874999999999907,0.055981
0.5879999999999906,0.024729
0.5884999999999906,-0.011787
0.5889999999999905,-0.064422
0.5894999999999905,-0.10883
0.5899999999999904,-0.14798
0.5904999999999904,-0.19173
0.5909999999999903,-0.22726
0.5914999999999903,-0.2447
0.5919999999999902,-0.23911
0.5924999999999901,-0.20687
0.5929999999999901,-0.16871
0.59349999999999,-0.14732
0.59399999999999,-0.13745
0.5944999999999899,-0.12495
0.5949999999999899,-0.10423
0.5954999999999898,-0.07495
0.5959999999999898,-0.038763
0.5964999999999897,-0.011458
0.5969999999999897,-0.0078385
0.5974999999999896,-0.014748
0.5979999999999895,-0.014419
0.5984999999999895,-0.011129
0.5989999999999894,-0.018037
0.5994999999999894,-0.031854
0.5999999999999893,-0.045013
0.6004999999999893,-0.050606
0.6009999999999892,-0.049948
0.6014999999999892,-0.045013
0.6019999999999891,-0.035473
0.602499999999989,-0.033499
0.602999999999989,-0.039421
0.6034999999999889,-0.043368
0.6039999999999889,-0.036131
0.6044999999999888,-0.025604
0.6049999999999888,-0.019024
0.6054999999999887,-0.0081675
0.6059999999999887,0.0049915
0.6064999999999886,0.017492
0.6069999999999885,0.048415
0.6074999999999885,0.10993
0.6079999999999884,0.16685
0.6084999999999884,0.20928
0.6089999999999883,0.22409
0.6094999999999883,0.23067
0.6099999999999882,0.23692
0.6104999999999882,0.21619
0.6109999999999881,0.14941
0.611499999999988,0.062561
0.611999999999988,0.0082805
0.6124999999999879,-0.019682
0.6129999999999879,-0.049948
0.6134999999999878,-0.082187
0.6139999999999878,-0.099951
0.6144999999999877,-0.10521
0.6149999999999877,-0.12101
0.6154999999999876,-0.13416
0.6159999999999876,-0.1289
0.6164999999999875,-0.10982
0.6169999999999874,-0.097649
0.6174999999999874,-0.092714
0.6179999999999873,-0.083174
0.6184999999999873,-0.068699
0.6189999999999872,-0.053895
0.6194999999999872,-0.037776
0.6199999999999871,-0.020998
0.6204999999999871,-0.0035625
0.620999999999987,0.013215
0.621499999999987,0.019136
0.6219999999999869,0.011241
0.6224999999999868,-0.0012595
0.6229999999999868,0.0046625
0.6234999999999867,0.011241
0.6239999999999867,0.0036755
0.6244999999999866,-0.0084965
0.6249999999999866,-0.012445
0.6254999999999865,-0.0078385
0.6259999999999865,0.0049915
0.6264999999999864,0.03394
0.6269999999999863,0.085918
0.6274999999999863,0.13395
0.6279999999999862,0.14086
0.6284999999999862,0.13559
0.6289999999999861,0.14184
0.6294999999999861,0.14086
0.629999999999986,0.13428
0.630499999999986,0.11947
0.6309999999999859,0.089208
0.6314999999999859,0.05006
0.6319999999999858,0.013544
0.6324999999999857,-0.019353
0.6329999999999857,-0.068041
0.6334999999999856,-0.11673
0.6339999999999856,-0.13252
0.6344999999999855,-0.12035
0.6349999999999855,-0.11278
0.6354999999999854,-0.11048
0.6359999999999854,-0.095017
0.6364999999999853,-0.072318
0.6369999999999852,-0.062778
0.6374999999999852,-0.061462
0.6379999999999851,-0.05225
0.6384999999999851,-0.033828
0.638999999999985,-0.022314
0.639499999999985,-0.015406
0.6399999999999849,-0.0058645
0.6404999999999849,0.0092675
0.6409999999999848,0.01815
0.6414999999999847,0.022426
0.6419999999999847,0.032624
0.6424999999999846,0.047099
0.6429999999999846,0.067824
0.6434999999999845,0.079009
0.6439999999999845,0.080325
0.6444999999999844,0.088221
0.6449999999999844,0.098419
0.6454999999999843,0.092826
0.6459999999999843,0.090523
0.6464999999999842,0.11322
0.6469999999999841,0.12836
0.6474999999999841,0.10599
0.647999999999984,0.061903
0.648499999999984,0.019794
0.6489999999999839,-0.016393
0.6494999999999839,-0.043697
0.6499999999999838,-0.043697
0.6504999999999838,-0.054553
0.6509999999999837,-0.088437
0.6514999999999836,-0.10127
0.6519999999999836,-0.092056
0.6524999999999835,-0.089424
0.6529999999999835,-0.093701
0.6534999999999834,-0.076265
0.6539999999999834,-0.046987
0.6544999999999833,-0.041394
0.6549999999999833,-0.051922
0.6554999999999832,-0.05225
0.6559999999999832,-0.03317
0.6564999999999831,-0.0068515
0.656999999999983,0.0095965
0.657499999999983,0.011899
0.6579999999999829,0.019465
0.6584999999999829,0.035256
0.6589999999999828,0.050718
0.6594999999999828,0.060916
0.6599999999999827,0.079996
0.6604999999999827,0.092826
0.6609999999999826,0.090852
0.6614999999999825,0.083944
0.6619999999999825,0.081641
0.6624999999999824,0.06914
0.6629999999999824,0.048086
0.6634999999999823,0.035585
0.6639999999999823,0.036572
0.6644999999999822,0.016176
0.6649999999999822,-0.034486
0.6654999999999821,-0.069686
0.665999999999982,-0.079226
0.666499999999982,-0.08449
0.6669999999999819,-0.088437
0.6674999999999819,-0.091398
0.6679999999999818,-0.092056
0.6684999999999818,-0.086464
0.6689999999999817,-0.076594
0.6694999999999817,-0.069028
0.6699999999999816,-0.055869
0.6704999999999816,-0.043697
0.6709999999999815,-0.036789
0.6714999999999814,-0.031854
0.6719999999999814,-0.022972
0.6724999999999813,-0.015077
0.6729999999999813,-0.0081675
0.6734999999999812,0.0013725
0.6739999999999812,0.014202
0.6744999999999811,0.024729
0.6749999999999811,0.029993
0.675499999999981,0.043809
0.675999999999981,0.069469
0.6764999999999809,0.093484
0.6769999999999808,0.12211
0.6774999999999808,0.1448
0.6779999999999807,0.15336
0.6784999999999807,0.16421
0.6789999999999806,0.16421
0.6794999999999806,0.13165
0.6799999999999805,0.08197
0.6804999999999805,0.029006
0.6809999999999804,-0.0052065
0.6814999999999803,-0.027578
0.6819999999999803,-0.042381
0.6824999999999802,-0.055211
0.6829999999999802,-0.071989
0.6834999999999801,-0.084819
0.6839999999999801,-0.10094
0.68449999999998,-0.10423
0.68499999999998,-0.085477
0.6854999999999799,-0.069357
0.6859999999999798,-0.075608
0.6864999999999798,-0.083832
0.6869999999999797,-0.087779
0.6874999999999797,-0.090082
0.6879999999999796,-0.099294
0.6884999999999796,-0.11048
0.6889999999999795,-0.11278
0.6894999999999795,-0.10456
0.6899999999999794,-0.091069
0.6904999999999794,-0.075608
0.6909999999999793,-0.053895
0.6914999999999792,-0.043039
0.6919999999999792,-0.037118
0.6924999999999791,-0.02363
0.6929999999999791,-0.012445
0.693499999999979,-0.0084965
0.693999999999979,-0.0081675
0.6944999999999789,-0.0094835
0.6949999999999789,-0.0055355
0.6954999999999788,0.010254
0.6959999999999787,0.021439
0.6964999999999787,0.019136
0.6969999999999786,0.015847
0.6974999999999786,0.061245
0.6979999999999785,0.1254
0.6984999999999785,0.14546
0.6989999999999784,0.13263
0.6994999999999784,0.11914
0.6999999999999783,0.11322
0.7004999999999783,0.10763
0.7009999999999782,0.08855
0.7014999999999781,0.030651
0.7019999999999781,-0.035802
0.702499999999978,-0.047645
0.702999999999978,5.6451e-05
0.7034999999999779,0.052692
0.7039999999999779,0.062232
0.7044999999999778,0.05335
0.7049999999999778,0.062232
0.7054999999999777,0.082628
0.7059999999999776,0.086247
0.7064999999999776,0.085918
0.7069999999999775,0.10302
0.7074999999999775,0.1175
0.7079999999999774,0.082628
0.7084999999999774,0.0086095
0.7089999999999773,-0.045013
0.7094999999999773,-0.082516
0.7099999999999772,-0.1141
0.7104999999999771,-0.12758
0.7109999999999771,-0.12133
0.711499999999977,-0.12068
0.711999999999977,-0.12528
0.7124999999999769,-0.11245
0.7129999999999769,-0.089095
0.7134999999999768,-0.069028
0.7139999999999768,-0.051264
0.7144999999999767,-0.027578
0.7149999999999767,-0.0081675
0.7154999999999766,0.0053205
0.7159999999999765,0.013873
0.7164999999999765,0.018808
0.7169999999999764,0.01157
0.7174999999999764,-0.011129
0.7179999999999763,-0.024288
0.7184999999999763,-0.011458
0.7189999999999762,0.0059785
0.7194999999999762,0.00071445
0.7199999999999761,-0.0075095
0.720499999999976,0.00071445
0.720999999999976,0.0099255
0.7214999999999759,0.021768
0.7219999999999759,0.038546
0.7224999999999758,0.046112
0.7229999999999758,0.022426
0.7234999999999757,-0.01705
0.7239999999999757,-0.027578
0.7244999999999756,-0.0091545
0.7249999999999756,0.0020305
0.7254999999999755,-0.0088255
0.7259999999999754,-0.018366
0.7264999999999754,-0.02363
0.7269999999999753,-0.031854
0.7274999999999753,-0.039092
0.7279999999999752,-0.03646
0.7284999999999752,-0.029551
0.7289999999999751,-0.021985
0.7294999999999751,-0.013761
0.729999999999975,-0.0019175
0.730499999999975,0.0079515
0.7309999999999749,0.021768
0.7314999999999748,0.030322
0.7319999999999748,0.029335
0.7324999999999747,0.028019
0.7329999999999747,0.033282
0.7334999999999746,0.041836
0.7339999999999746,0.051705
0.7344999999999745,0.092497
0.7349999999999745,0.16849
0.7354999999999744,0.24711
0.7359999999999743,0.27541
0.7364999999999743,0.24909
0.7369999999999742,0.22672
0.7374999999999742,0.23955
0.7379999999999741,0.26323
0.7384999999999741,0.26291
0.738999999999974,0.21652
0.739499999999974,0.12638
0.7399999999999739,0.03723
0.7404999999999738,-0.04929
0.7409999999999738,-0.14699
0.7414999999999737,-0.21608
0.7419999999999737,-0.2424
0.7424999999999736,-0.26411
0.7429999999999736,-0.29602
0.7434999999999735,-0.29997
0.7439999999999735,-0.2845
0.7444999999999734,-0.27628
0.7449999999999734,-0.26115
0.7454999999999733,-0.21838
0.7459999999999732,-0.16114
0.7464999999999732,-0.1266
0.7469999999999731,-0.10982
0.7474999999999731,-0.09732
0.747999999999973,-0.088437
0.748499999999973,-0.079555
0.7489999999999729,-0.071002
0.7494999999999729,-0.060804
0.7499999999999728,-0.047316
0.7504999999999727,-0.034486
0.7509999999999727,-0.023959
0.7514999999999726,-0.011458
0.7519999999999726,-0.0048775
0.7524999999999725,-0.0029045
0.7529999999999725,0.0086095
0.7534999999999724,0.067495
0.7539999999999724,0.16356
0.7544999999999723,0.20599
0.7549999999999722,0.18823
0.7554999999999722,0.16619
0.7559999999999721,0.16948
0.7564999999999721,0.16586
0.756999999999972,0.13559
0.757499999999972,0.081312
0.7579999999999719,0.013544
0.7584999999999719,-0.02692
0.7589999999999718,-0.032512
0.7594999999999718,-0.027249
0.7599999999999717,-0.035802
0.7604999999999716,-0.064751
0.7609999999999716,-0.089753
0.7614999999999715,-0.086135
0.7619999999999715,-0.072976
0.7624999999999714,-0.065738
0.7629999999999714,-0.05225
0.7634999999999713,-0.030538
0.7639999999999713,-0.0078385
0.7644999999999712,0.0030175
0.7649999999999711,0.0066365
0.7654999999999711,0.0099255
0.765999999999971,0.012228
0.766499999999971,0.0072935
0.7669999999999709,0.0089385
0.7674999999999709,0.013215
0.7679999999999708,0.0079515
0.7684999999999708,5.6451e-05
0.7689999999999707,0.0013725
0.7694999999999707,0.0089385
0.7699999999999706,0.013873
0.7704999999999705,0.012228
0.7709999999999705,0.012886
0.7714999999999704,0.029664
0.7719999999999704,0.054665
0.7724999999999703,0.071772
0.7729999999999703,0.070785
0.7734999999999702,0.069469
0.7739999999999702,0.076049
0.7744999999999701,0.077365
0.77499999999997,0.065522
0.77549999999997,0.05631
0.7759999999999699,0.062232
0.7764999999999699,0.062232
0.7769999999999698,0.045783
0.7774999999999698,0.039533
0.7779999999999697,0.039533
0.7784999999999697,0.028677
0.7789999999999696,0.0036755
0.7794999999999696,-0.029222
0.7799999999999695,-0.052908
0.7804999999999694,-0.061133
0.7809999999999694,-0.055869
0.7814999999999693,-0.05225
0.7819999999999693,-0.056856
0.7824999999999692,-0.064093
0.7829999999999692,-0.06837
0.7834999999999691,-0.070344
0.783999999999969,-0.068699
0.784499999999969,-0.066067
0.784999999999969,-0.059488
0.7854999999999689,-0.05225
0.7859999999999688,-0.043697
0.7864999999999688,-0.031854
0.7869999999999687,-0.015735
0.7874999999999687,-0.0055355
0.7879999999999686,-0.0045495
0.7884999999999686,-0.0055355
0.7889999999999685,0.00071445
0.7894999999999684,0.0069655
0.7899999999999684,0.0040045
0.7904999999999683,-0.0038915
0.7909999999999683,-0.0084965
0.7914999999999682,-0.0032335
0.7919999999999682,0.013873
0.7924999999999681,0.038875
0.7929999999999681,0.057626
0.793499999999968,0.1073
0.793999999999968,0.20698
0.7944999999999679,0.28626
0.7949999999999678,0.29547
0.7954999999999678,0.26817
0.7959999999999677,0.26389
0.7964999999999677,0.27837
0.7969999999999676,0.25698
0.7974999999999676,0.2004
0.7979999999999675,0.15698
0.7984999999999675,0.1027
0.7989999999999674,0.013873
0.7994999999999673,-0.09403
0.7999999999999673,-0.17463
0.8004999999999672,-0.23154
0.8009999999999672,-0.28582
0.8014999999999671,-0.32398
0.8019999999999671,-0.32628
0.802499999999967,-0.3003
0.802999999999967,-0.26444
0.8034999999999669,-0.22924
0.8039999999999669,-0.19272
0.8044999999999668,-0.16147
0.8049999999999667,-0.14535
0.8054999999999667,-0.13712
0.8059999999999666,-0.12331
0.8064999999999666,-0.10587
0.8069999999999665,-0.088766
0.8074999999999665,-0.070344
0.8079999999999664,-0.050277
0.8084999999999664,-0.037776
0.8089999999999663,-0.029551
0.8094999999999662,-0.011458
0.8099999999999662,0.0043335
0.8104999999999661,0.0013725
0.8109999999999661,-0.0029045
0.811499999999966,0.010912
0.811999999999966,0.036572
0.8124999999999659,0.066837
0.8129999999999659,0.09809
0.8134999999999658,0.13099
0.8139999999999658,0.14809
0.8144999999999657,0.15171
0.8149999999999656,0.15171
0.8154999999999656,0.14744
0.8159999999999655,0.13855
0.8164999999999655,0.12901
0.8169999999999654,0.10796
0.8174999999999654,0.054665
0.8179999999999653,-0.02034
0.8184999999999653,-0.082845
0.8189999999999652,-0.12594
0.8194999999999651,-0.13647
0.8199999999999651,-0.11443
0.820499999999965,-0.094688
0.820999999999965,-0.089095
0.8214999999999649,-0.077581
0.8219999999999649,-0.050606
0.8224999999999648,-0.02692
0.8229999999999648,-0.012774
0.8234999999999647,-0.0048775
0.8239999999999646,-0.00027255
0.8244999999999646,0.0026885
0.8249999999999645,0.0079515
0.8254999999999645,0.012228
0.8259999999999644,0.015189
0.8264999999999644,0.017821
0.8269999999999643,0.01815
0.8274999999999643,0.013544
0.8279999999999642,0.0082805
0.8284999999999642,0.0092675
0.8289999999999641,0.016505
0.829499999999964,0.024071
0.829999999999964,0.0244
0.8304999999999639,0.016176
0.8309999999999639,0.017492
0.8314999999999638,0.031637
0.8319999999999638,0.052363
0.8324999999999637,0.075391
0.8329999999999637,0.12342
0.8334999999999636,0.15632
0.8339999999999635,0.13855
0.8344999999999635,0.11388
0.8349999999999634,0.11059
0.8354999999999634,0.105
0.8359999999999633,0.07868
0.8364999999999633,0.048415
0.8369999999999632,0.0056495
0.8374999999999632,-0.041065
0.8379999999999631,-0.057843
0.838499999999963,-0.041394
0.838999999999963,-0.021656
0.8394999999999629,-0.036131
0.8399999999999629,-0.080871
0.8404999999999628,-0.10357
0.8409999999999628,-0.078897
0.8414999999999627,-0.042381
0.8419999999999627,-0.02988
0.8424999999999626,-0.032512
0.8429999999999626,-0.030538
0.8434999999999625,-0.021656
0.8439999999999624,-0.0084965
0.8444999999999624,-0.0048775
0.8449999999999623,-0.0094835
0.8454999999999623,-0.0094835
0.8459999999999622,-0.014748
0.8464999999999622,-0.016393
0.8469999999999621,-0.0015885
0.8474999999999621,0.014202
0.847999999999962,0.015189
0.848499999999962,0.010254
0.8489999999999619,0.0036755
0.8494999999999618,5.6451e-05
0.8499999999999618,-0.00060155
0.8504999999999617,-0.0048775
0.8509999999999617,-0.0048775
0.8514999999999616,0.0030175
0.8519999999999616,0.011899
0.8524999999999615,0.017492
0.8529999999999615,0.015847
0.8534999999999614,0.01486
0.8539999999999613,0.024729
0.8544999999999613,0.039862
0.8549999999999612,0.045125
0.8554999999999612,0.045125
0.8559999999999611,0.036243
0.8564999999999611,0.02111
0.856999999999961,0.0056495
0.857499999999961,-0.00093055
0.8579999999999609,0.00038545
0.8584999999999608,-0.0068515
0.8589999999999608,-0.02034
0.8594999999999607,-0.022972
0.8599999999999607,-0.01705
0.8604999999999606,-0.027907
0.8609999999999606,-0.051922
0.8614999999999605,-0.053895
0.8619999999999605,-0.024288
0.8624999999999604,0.00038545
0.8629999999999604,0.010912
0.8634999999999603,0.024729
0.8639999999999602,0.03394
0.8644999999999602,0.031637
0.8649999999999601,0.029006
0.8654999999999601,0.035914
0.86599999999996,0.040849
0.86649999999996,0.028348
0.8669999999999599,0.0026885
0.8674999999999599,-0.0071805
0.8679999999999598,0.016834
0.8684999999999597,0.0596
0.8689999999999597,0.078351
0.8694999999999596,0.063548
0.8699999999999596,0.044796
0.8704999999999595,0.041178
0.8709999999999595,0.041507
0.8714999999999594,0.039862
0.8719999999999594,0.050718
0.8724999999999593,0.047757
0.8729999999999593,0.0089385
0.8734999999999592,-0.051264
0.8739999999999591,-0.11015
0.8744999999999591,-0.14074
0.874999999999959,-0.1368
0.875499999999959,-0.11772
0.8759999999999589,-0.10587
0.8764999999999589,-0.10489
0.8769999999999588,-0.11179
0.8774999999999588,-0.10883
0.8779999999999587,-0.092714
0.8784999999999586,-0.079884
0.8789999999999586,-0.069357
0.8794999999999585,-0.056198
0.8799999999999585,-0.032841
0.8804999999999584,-0.0071805
0.8809999999999584,0.00038545
0.8814999999999583,-0.011787
0.8819999999999583,-0.015735
0.8824999999999582,-0.0094835
0.8829999999999582,-0.0029045
0.8834999999999581,0.0010435
0.883999999999958,0.011241
0.884499999999958,0.032295
0.8849999999999579,0.050389
0.8854999999999579,0.04677
0.8859999999999578,0.031637
0.8864999999999578,0.025058
0.8869999999999577,0.026045
0.8874999999999577,0.025387
0.8879999999999576,0.019794
0.8884999999999575,0.0095965
0.8889999999999575,-0.0045495
0.8894999999999574,-0.016064
0.8899999999999574,-0.018695
0.8904999999999573,-0.015735
0.8909999999999573,-0.0045495
0.8914999999999572,0.011241
0.8919999999999572,0.036243
0.8924999999999571,0.073417
0.892999999999957,0.11224
0.893499999999957,0.13362
0.8939999999999569,0.14053
0.8944999999999569,0.14184
0.8949999999999568,0.14217
0.8954999999999568,0.15402
0.8959999999999567,0.16717
0.8964999999999567,0.15138
0.8969999999999566,0.10237
0.8974999999999566,0.036901
0.8979999999999565,-0.025604
0.8984999999999564,-0.063107
0.8989999999999564,-0.083174
0.8994999999999563,-0.10982
0.8999999999999563,-0.12232
0.9004999999999562,-0.10127
0.9009999999999562,-0.081858
0.9014999999999561,-0.089424
0.9019999999999561,-0.098965
0.902499999999956,-0.083503
0.902999999999956,-0.063107
0.9034999999999559,-0.05225
0.9039999999999558,-0.049619
0.9044999999999558,-0.041723
0.9049999999999557,-0.031854
0.9054999999999557,-0.026262
0.9059999999999556,-0.02692
0.9064999999999556,-0.028564
0.9069999999999555,-0.027907
0.9074999999999555,-0.032183
0.9079999999999554,-0.035473
0.9084999999999553,-0.034486
0.9089999999999553,-0.027249
0.9094999999999552,-0.018695
0.9099999999999552,-0.013761
0.9104999999999551,-0.011787
0.9109999999999551,-0.0055355
0.911499999999955,0.0013725
0.911999999999955,0.012886
0.9124999999999549,0.021439
0.9129999999999548,0.029664
0.9134999999999548,0.057955
0.9139999999999547,0.11882
0.9144999999999547,0.14119
0.9149999999999546,0.10664
0.9154999999999546,0.075391
0.9159999999999545,0.080325
0.9164999999999545,0.087892
0.9169999999999544,0.088221
0.9174999999999544,0.11618
0.9179999999999543,0.15698
0.9184999999999542,0.13822
0.9189999999999542,0.082299
0.9194999999999541,0.069798
0.9199999999999541,0.089866
0.920499999999954,0.077694
0.920999999999954,0.015518
0.9214999999999539,-0.051264
0.9219999999999539,-0.088437
0.9224999999999538,-0.10324
0.9229999999999537,-0.12331
0.9234999999999537,-0.14206
0.9239999999999536,-0.14041
0.9244999999999536,-0.1266
0.9249999999999535,-0.11837
0.9254999999999535,-0.12528
0.9259999999999534,-0.13219
0.9264999999999534,-0.13022
0.9269999999999533,-0.11377
0.9274999999999533,-0.081858
0.9279999999999532,-0.051922
0.9284999999999531,-0.024617
0.9289999999999531,0.0020305
0.929499999999953,0.018808
0.929999999999953,0.040849
0.9304999999999529,0.07572
0.9309999999999529,0.11257
0.9314999999999528,0.13559
0.9319999999999528,0.13197
0.9324999999999527,0.11191
0.9329999999999526,0.097432
0.9334999999999526,0.084931
0.9339999999999525,0.045454
0.9344999999999525,-0.00093055
0.9349999999999524,-0.02692
0.9354999999999524,-0.041394
0.9359999999999523,-0.060804
0.9364999999999523,-0.078239
0.9369999999999522,-0.092385
0.9374999999999521,-0.11706
0.9379999999999521,-0.1414
0.938499999999952,-0.14338
0.938999999999952,-0.12298
0.9394999999999519,-0.10653
0.9399999999999519,-0.11114
0.9404999999999518,-0.11607
0.9409999999999518,-0.10489
0.9414999999999517,-0.087779
0.9419999999999517,-0.078239
0.9424999999999516,-0.073634
0.9429999999999515,-0.064422
0.9434999999999515,-0.044026
0.9439999999999514,-0.022643
0.9444999999999514,-0.0081675
0.9449999999999513,0.0036755
0.9454999999999513,0.015847
0.9459999999999512,0.02111
0.9464999999999512,0.029993
0.9469999999999511,0.051047
0.947499999999951,0.06618
0.947999999999951,0.059929
0.9484999999999509,0.051705
0.9489999999999509,0.055323
0.9494999999999508,0.050718
0.9499999999999508,0.036572
0.9504999999999507,0.026374
0.9509999999999507,0.030322
0.9514999999999506,0.037888
0.9519999999999506,0.036901
0.9524999999999505,0.029664
0.9529999999999504,0.027032
0.9534999999999504,0.023084
0.9539999999999503,0.016176
0.9544999999999503,0.020123
0.9549999999999502,0.025387
0.9554999999999502,0.021768
0.9559999999999501,0.018808
0.9564999999999501,0.025387
0.95699999999995,0.034269
0.95749999999995,0.032295
0.9579999999999499,0.021439
0.9584999999999498,0.017163
0.9589999999999498,0.017163
0.9594999999999497,0.01815
0.9599999999999497,0.019465
0.9604999999999496,0.024729
0.9609999999999496,0.038875
0.9614999999999495,0.047099
0.9619999999999495,0.044138
0.9624999999999494,0.035585
0.9629999999999493,0.027361
0.9634999999999493,0.024071
0.9639999999999492,0.026703
0.9644999999999492,0.025058
0.9649999999999491,0.015847
0.9654999999999491,0.0043335
0.965999999999949,0.0069655
0.966499999999949,0.022426
0.9669999999999489,0.027032
0.9674999999999488,0.013544
0.9679999999999488,-0.00027255
0.9684999999999487,-0.00093055
0.9689999999999487,0.0036755
0.9694999999999486,0.0020305
0.9699999999999486,-0.011787
0.9704999999999485,-0.031196
0.9709999999999485,-0.039092
0.9714999999999484,-0.035473
0.9719999999999483,-0.02692
0.9724999999999483,-0.01409
0.9729999999999482,-0.0081675
0.9734999999999482,-0.0055355
0.9739999999999481,0.0026885
0.9744999999999481,0.016505
0.974999999999948,0.0244
0.975499999999948,0.031637
0.9759999999999479,0.042494
0.9764999999999479,0.041836
0.9769999999999478,0.03394
0.9774999999999477,0.041507
0.9779999999999477,0.065522
0.9784999999999476,0.11355
0.9789999999999476,0.15731
0.9794999999999475,0.19152
0.9799999999999475,0.2458
0.9804999999999474,0.27475
0.9809999999999474,0.23922
0.9814999999999473,0.16323
0.9819999999999472,0.08855
0.9824999999999472,0.036901
0.9829999999999471,-0.022972
0.9834999999999471,-0.10982
0.983999999999947,-0.19733
0.984499999999947,-0.25161
0.9849999999999469,-0.272
0.9854999999999469,-0.27398
0.9859999999999468,-0.27003
0.9864999999999468,-0.25292
0.9869999999999467,-0.22068
0.9874999999999466,-0.18121
0.9879999999999466,-0.13844
0.9884999999999465,-0.098307
0.9889999999999465,-0.067383
0.9894999999999464,-0.050277
0.9899999999999464,-0.047974
0.9904999999999463,-0.044026
0.9909999999999463,-0.031525
0.9914999999999462,-0.031196
0.9919999999999461,-0.030538
0.9924999999999461,-0.019024
0.992999999999946,-0.0091545
0.993499999999946,5.6451e-05
0.9939999999999459,0.0040045
0.9944999999999459,0.0066365
0.9949999999999458,0.031308
0.9954999999999458,0.068153
0.9959999999999457,0.087563
0.9964999999999457,0.096774
0.9969999999999456,0.1175
0.9974999999999455,0.14086
0.9979999999999455,0.15073
0.9984999999999454,0.14316
0.9989999999999454,0.14086
0.9994999999999453,0.14283
0.9999999999999453,0.1175
1.0004999999999453,0.07572
1.0009999999999453,0.039204
1.0014999999999452,0.017492
1.0019999999999452,0.0036755
1.002499999999945,-0.028564
1.002999999999945,-0.070015
1.003499999999945,-0.1062
1.003999999999945,-0.12758
1.0044999999999449,-0.13022
1.0049999999999448,-0.12364
1.0054999999999448,-0.12035
1.0059999999999447,-0.11344
1.0064999999999447,-0.099622
1.0069999999999446,-0.077581
1.0074999999999446,-0.050935
1.0079999999999445,-0.02988
1.0084999999999444,-0.017379
1.0089999999999444,-0.017379
1.0094999999999443,-0.020998
1.0099999999999443,-0.013432
1.0104999999999442,-0.00093055
1.0109999999999442,0.0056495
1.011499999999944,0.0036755
1.011999999999944,-0.011458
1.012499999999944,-0.025275
1.012999999999944,-0.02363
1.013499999999944,-0.02363
1.0139999999999438,-0.028893
1.0144999999999438,-0.027249
1.0149999999999437,-0.018695
1.0154999999999437,-0.0068515
1.0159999999999436,0.0049915
1.0164999999999436,0.010583
1.0169999999999435,0.012557
1.0174999999999434,0.014202
1.0179999999999434,0.015189
1.0184999999999433,0.014531
1.0189999999999433,0.014202
1.0194999999999432,0.020452
1.0199999999999432,0.024071
1.0204999999999431,0.024071
1.020999999999943,0.029993
1.021499999999943,0.037888
1.021999999999943,0.042494
1.022499999999943,0.043151
1.0229999999999428,0.041178
1.0234999999999428,0.04052
1.0239999999999427,0.039533
1.0244999999999427,0.04052
1.0249999999999426,0.044467
1.0254999999999426,0.053021
1.0259999999999425,0.070785
1.0264999999999425,0.085918
1.0269999999999424,0.08855
1.0274999999999423,0.094142
1.0279999999999423,0.1073
1.0284999999999422,0.10204
1.0289999999999422,0.084602
1.0294999999999421,0.070456
1.029999999999942,0.057955
1.030499999999942,0.036901
1.030999999999942,0.0066365
1.031499999999942,-0.025275
1.0319999999999419,-0.047316
1.0324999999999418,-0.066396
1.0329999999999417,-0.078239
1.0334999999999417,-0.078239
1.0339999999999416,-0.078568
1.0344999999999416,-0.073963
1.0349999999999415,-0.063107
1.0354999999999415,-0.054882
1.0359999999999414,-0.050935
1.0364999999999414,-0.044684
1.0369999999999413,-0.03646
1.0374999999999412,-0.026591
1.0379999999999412,-0.014419
1.0384999999999411,0.0036755
1.038999999999941,0.018808
1.039499999999941,0.032953
1.039999999999941,0.039862
1.040499999999941,0.034269
1.0409999999999409,0.023413
1.0414999999999408,0.023084
1.0419999999999408,0.026703
1.0424999999999407,0.019794
1.0429999999999406,0.0013725
1.0434999999999406,-0.011458
1.0439999999999405,-0.0078385
1.0444999999999405,0.0020305
1.0449999999999404,0.0040045
1.0454999999999404,-0.0035625
1.0459999999999403,-0.0075095
1.0464999999999403,-0.0055355
1.0469999999999402,-0.0068515
1.0474999999999401,-0.0065225
1.04799999999994,-0.0022465
1.04849999999994,0.0020305
1.04899999999994,0.0033465
1.04949999999994,0.0030175
1.0499999999999399,0.032953
1.0504999999999398,0.10434
1.0509999999999398,0.14908
1.0514999999999397,0.15665
1.0519999999999397,0.15632
1.0524999999999396,0.1379
1.0529999999999395,0.10895
1.0534999999999395,0.080654
1.0539999999999394,0.038875
1.0544999999999394,-0.017379
1.0549999999999393,-0.053237
1.0554999999999393,-0.067054
1.0559999999999392,-0.083832
1.0564999999999392,-0.1016
1.056999999999939,-0.11739
1.057499999999939,-0.13647
1.057999999999939,-0.13976
1.058499999999939,-0.12002
1.0589999999999389,-0.099294
1.0594999999999388,-0.092385
1.0599999999999388,-0.091398
1.0604999999999387,-0.084161
1.0609999999999387,-0.071002
1.0614999999999386,-0.061133
1.0619999999999385,-0.054224
1.0624999999999385,-0.03975
1.0629999999999384,-0.01409
1.0634999999999384,0.0040045
1.0639999999999383,5.6451e-05
1.0644999999999383,-0.0078385
1.0649999999999382,-0.0084965
1.0654999999999382,-0.0048775
1.065999999999938,0.0079515
1.066499999999938,0.026374
1.066999999999938,0.03394
1.067499999999938,0.028348
1.0679999999999379,0.022097
1.0684999999999378,0.016505
1.0689999999999378,0.017821
1.0694999999999377,0.018808
1.0699999999999377,0.015847
1.0704999999999376,0.015189
1.0709999999999376,0.0059785
1.0714999999999375,-0.0091545
1.0719999999999374,-0.015406
1.0724999999999374,-0.01705
1.0729999999999373,-0.019024
1.0734999999999373,-0.0075095
1.0739999999999372,-0.0012595
1.0744999999999372,-0.018366
1.0749999999999371,-0.027907
1.075499999999937,-0.0019175
1.075999999999937,0.049731
1.076499999999937,0.077036
1.076999999999937,0.070456
1.0774999999999368,0.05631
1.0779999999999368,0.049073
1.0784999999999367,0.046441
1.0789999999999367,0.045454
1.0794999999999366,0.053679
1.0799999999999366,0.047757
1.0804999999999365,0.013544
1.0809999999999365,-0.019353
1.0814999999999364,-0.025933
1.0819999999999363,-0.013103
1.0824999999999363,0.0036755
1.0829999999999362,0.0046625
1.0834999999999362,-0.0081675
1.0839999999999361,-0.020998
1.084499999999936,-0.02988
1.084999999999936,-0.040079
1.085499999999936,-0.045671
1.085999999999936,-0.036131
1.0864999999999359,-0.011129
1.0869999999999358,0.0092675
1.0874999999999357,0.0056495
1.0879999999999357,-0.0068515
1.0884999999999356,-0.010471
1.0889999999999356,-0.0081675
1.0894999999999355,-0.010471
1.0899999999999355,-0.015077
1.0904999999999354,-0.01409
1.0909999999999354,-0.00027255
1.0914999999999353,0.014202
1.0919999999999352,0.012886
1.0924999999999352,0.0066365
1.0929999999999351,0.0079515
1.093499999999935,0.019794
1.093999999999935,0.033282
1.094499999999935,0.038546
1.094999999999935,0.036243
1.0954999999999349,0.03723
1.0959999999999348,0.029993
1.0964999999999347,0.0076225
1.0969999999999347,-0.0081675
1.0974999999999346,-0.012116
1.0979999999999346,-0.015077
1.0984999999999345,-0.012774
1.0989999999999345,0.0036755
1.0994999999999344,0.016176
1.0999999999999344,0.022097
1.1004999999999343,0.024729
1.1009999999999343,0.025716
1.1014999999999342,0.03394
1.1019999999999341,0.049073
1.102499999999934,0.070785
1.102999999999934,0.099077
1.103499999999934,0.10928
1.103999999999934,0.090852
1.1044999999999339,0.069798
1.1049999999999338,0.053679
1.1054999999999338,0.031308
1.1059999999999337,-0.0048775
1.1064999999999336,-0.020011
1.1069999999999336,-0.0078385
1.1074999999999335,-0.016721
1.1079999999999335,-0.056198
1.1084999999999334,-0.07791
1.1089999999999334,-0.067054
1.1094999999999333,-0.050277
1.1099999999999333,-0.038763
1.1104999999999332,-0.035473
1.1109999999999332,-0.039421
1.111499999999933,-0.02692
1.111999999999933,0.0030175
1.112499999999933,0.015518
1.112999999999933,-0.00027255
1.1134999999999329,-0.01409
1.1139999999999328,-0.016393
1.1144999999999328,-0.027578
1.1149999999999327,-0.05225
1.1154999999999327,-0.061133
1.1159999999999326,-0.048303
1.1164999999999325,-0.053566
1.1169999999999325,-0.075608
1.1174999999999324,-0.079884
1.1179999999999324,-0.054224
1.1184999999999323,-0.025933
1.1189999999999323,-0.011787
1.1194999999999322,-0.0042205
1.1199999999999322,-0.00060155
1.120499999999932,-0.0058645
1.120999999999932,-0.012445
1.121499999999932,-0.015077
1.121999999999932,-0.0108
1.1224999999999319,0.015847
1.1229999999999318,0.042494
1.1234999999999318,0.032624
1.1239999999999317,0.00071445
1.1244999999999317,-0.018366
1.1249999999999316,-0.027249
1.1254999999999316,-0.035144
1.1259999999999315,-0.043368
1.1264999999999314,-0.046329
1.1269999999999314,-0.046658
1.1274999999999313,-0.047974
1.1279999999999313,-0.04271
1.1284999999999312,-0.035144
1.1289999999999312,-0.031854
1.1294999999999311,-0.033499
1.129999999999931,-0.031196
1.130499999999931,-0.023301
1.130999999999931,-0.010142
1.131499999999931,0.00038545
1.1319999999999308,-0.0019175
1.1324999999999308,-0.0088255
1.1329999999999307,-0.0015885
1.1334999999999307,0.015847
1.1339999999999306,0.019136
1.1344999999999306,0.01486
1.1349999999999305,0.018808
1.1354999999999305,0.026374
1.1359999999999304,0.030979
1.1364999999999303,0.029993
1.1369999999999303,0.025716
1.1374999999999302,0.034269
1.1379999999999302,0.076707
1.1384999999999301,0.13263
1.13899999999993,0.14513
1.13949999999993,0.13132
1.13999999999993,0.13165
1.14049999999993,0.13921
1.1409999999999298,0.13296
1.1414999999999298,0.12145
1.1419999999999297,0.087234
1.1424999999999297,0.024071
1.1429999999999296,-0.016721
1.1434999999999296,-0.019682
1.1439999999999295,-0.013432
1.1444999999999295,-0.028236
1.1449999999999294,-0.061133
1.1454999999999294,-0.087451
1.1459999999999293,-0.098307
1.1464999999999292,-0.097649
1.1469999999999292,-0.093701
1.1474999999999291,-0.090411
1.147999999999929,-0.086135
1.148499999999929,-0.07791
1.148999999999929,-0.060146
1.149499999999929,-0.031854
1.1499999999999289,-0.01409
1.1504999999999288,-0.013432
1.1509999999999287,-0.015406
1.1514999999999287,-0.0022465
1.1519999999999286,0.01157
1.1524999999999286,0.0059785
1.1529999999999285,-0.0015885
1.1534999999999285,0.0033465
1.1539999999999284,0.0033465
1.1544999999999284,-0.0035625
1.1549999999999283,-0.0055355
1.1554999999999283,0.0030175
1.1559999999999282,0.011899
1.1564999999999281,0.017492
1.156999999999928,0.014531
1.157499999999928,0.012228
1.157999999999928,0.023742
1.158499999999928,0.033282
1.1589999999999279,0.025387
1.1594999999999278,0.0082805
1.1599999999999278,-0.0052065
1.1604999999999277,-0.00027255
1.1609999999999276,0.019794
1.1614999999999276,0.041178
1.1619999999999275,0.074733
1.1624999999999275,0.105
1.1629999999999274,0.11618
1.1634999999999274,0.11651
1.1639999999999273,0.12507
1.1644999999999273,0.13197
1.1649999999999272,0.12638
1.1654999999999271,0.10631
1.165999999999927,0.0596
1.166499999999927,0.0099255
1.166999999999927,-0.040079
1.167499999999927,-0.092385
1.1679999999999269,-0.13548
1.1684999999999268,-0.16048
1.1689999999999268,-0.1539
1.1694999999999267,-0.13943
1.1699999999999267,-0.13647
1.1704999999999266,-0.12989
1.1709999999999265,-0.11081
1.1714999999999265,-0.087122
1.1719999999999264,-0.076923
1.1724999999999264,-0.076594
1.1729999999999263,-0.06837
1.1734999999999263,-0.050277
1.1739999999999262,-0.03317
1.1744999999999262,-0.023959
1.174999999999926,-0.02034
1.175499999999926,-0.012445
1.175999999999926,-0.00060155
1.176499999999926,0.0059785
1.1769999999999259,0.0066365
1.1774999999999258,0.00071445
1.1779999999999258,-0.0081675
1.1784999999999257,-0.010471
1.1789999999999257,-0.0045495
1.1794999999999256,0.0059785
1.1799999999999256,0.018479
1.1804999999999255,0.026374
1.1809999999999254,0.03723
1.1814999999999254,0.074075
1.1819999999999253,0.13033
1.1824999999999253,0.17211
1.1829999999999252,0.18165
1.1834999999999252,0.16948
1.1839999999999251,0.15402
1.184499999999925,0.12836
1.184999999999925,0.090523
1.185499999999925,0.048744
1.185999999999925,0.011899
1.1864999999999248,-0.011787
1.1869999999999248,-0.040079
1.1874999999999247,-0.081529
1.1879999999999247,-0.10949
1.1884999999999246,-0.11245
1.1889999999999246,-0.11179
1.1894999999999245,-0.10653
1.1899999999999245,-0.089095
1.1904999999999244,-0.072318
1.1909999999999243,-0.066725
1.1914999999999243,-0.072976
1.1919999999999242,-0.075936
1.1924999999999242,-0.071989
1.1929999999999241,-0.056856
1.193499999999924,-0.032841
1.193999999999924,0.010912
1.194499999999924,0.052692
1.194999999999924,0.057955
1.1954999999999238,0.058942
1.1959999999999238,0.074075
1.1964999999999237,0.090194
1.1969999999999237,0.093813
1.1974999999999236,0.078351
1.1979999999999236,0.052363
1.1984999999999235,0.026045
1.1989999999999235,-0.0029045
1.1994999999999234,-0.031525
1.1999999999999234,-0.054224
1.2004999999999233,-0.074292
1.2009999999999232,-0.084819
1.2014999999999232,-0.07791
1.2019999999999231,-0.067712
1.202499999999923,-0.067383
1.202999999999923,-0.063436
1.203499999999923,-0.047316
1.203999999999923,-0.030209
1.2044999999999229,-0.013103
1.2049999999999228,0.028019
1.2054999999999227,0.1027
1.2059999999999227,0.13987
1.2064999999999226,0.12276
1.2069999999999226,0.095787
1.2074999999999225,0.084273
1.2079999999999225,0.079667
1.2084999999999224,0.070456
1.2089999999999224,0.04677
1.2094999999999223,-0.011458
1.2099999999999222,-0.073634
1.2104999999999222,-0.095675
1.2109999999999221,-0.071331
1.211499999999922,-0.032512
1.211999999999922,-0.011458
1.212499999999922,-0.015077
1.212999999999922,-0.025275
1.2134999999999219,-0.032512
1.2139999999999218,-0.031196
1.2144999999999218,-0.020998
1.2149999999999217,-0.015077
1.2154999999999216,-0.016064
1.2159999999999216,-0.024946
1.2164999999999215,-0.038434
1.2169999999999215,-0.046
1.2174999999999214,-0.040736
1.2179999999999214,-0.039092
1.2184999999999213,-0.044026
1.2189999999999213,-0.035473
1.2194999999999212,-0.011129
1.2199999999999211,0.0020305
1.220499999999921,-0.00093055
1.220999999999921,0.0040045
1.221499999999921,0.022097
1.221999999999921,0.039862
1.2224999999999209,0.051047
1.2229999999999208,0.053679
1.2234999999999208,0.057297
1.2239999999999207,0.057955
1.2244999999999207,0.05006
1.2249999999999206,0.031637
1.2254999999999205,0.031637
1.2259999999999205,0.035256
1.2264999999999204,0.019465
1.2269999999999204,0.0040045
1.2274999999999203,0.0030175
1.2279999999999203,-0.00027255
1.2284999999999202,-0.020011
1.2289999999999202,-0.039421
1.22949999999992,-0.047974
1.22999999999992,-0.050935
1.23049999999992,-0.055211
1.23099999999992,-0.061133
1.2314999999999199,-0.067712
1.2319999999999198,-0.062778
1.2324999999999198,-0.040736
1.2329999999999197,-0.022314
1.2334999999999197,-0.019353
1.2339999999999196,-0.023301
1.2344999999999196,-0.019024
1.2349999999999195,-0.019682
1.2354999999999194,-0.01705
1.2359999999999194,-0.0019175
1.2364999999999193,0.013215
1.2369999999999193,0.02111
1.2374999999999192,0.0244
1.2379999999999192,0.031308
1.238499999999919,0.043809
1.238999999999919,0.059271
1.239499999999919,0.079667
1.239999999999919,0.092497
1.240499999999919,0.086247
1.2409999999999188,0.084602
1.2414999999999188,0.092497
1.2419999999999187,0.081312
1.2424999999999187,0.043151
1.2429999999999186,0.010254
1.2434999999999186,0.0020305
1.2439999999999185,-0.0032335
1.2444999999999184,-0.021985
1.2449999999999184,-0.041065
1.2454999999999183,-0.050277
1.2459999999999183,-0.051264
1.2464999999999182,-0.044026
1.2469999999999182,-0.028893
1.2474999999999181,-0.013761
1.247999999999918,-0.0052065
1.248499999999918,-0.0055355
1.248999999999918,-0.0052065
1.249499999999918,-0.0035625
1.2499999999999178,-0.0058645
1.2504999999999178,-0.014748
1.2509999999999177,-0.027907
1.2514999999999177,-0.027907
1.2519999999999176,-0.023301
1.2524999999999176,-0.022643
1.2529999999999175,-0.022643
1.2534999999999175,-0.020011
1.2539999999999174,-0.011458
1.2544999999999173,0.0010435
1.2549999999999173,0.0059785
1.2554999999999172,0.0089385
1.2559999999999172,0.019465
1.2564999999999171,0.034269
1.256999999999917,0.04348
1.257499999999917,0.054337
1.257999999999917,0.068482
1.258499999999917,0.0948
1.2589999999999169,0.13592
1.2594999999999168,0.18264
1.2599999999999167,0.21257
1.2604999999999167,0.19974
1.2609999999999166,0.15928
1.2614999999999166,0.12211
1.2619999999999165,0.087563
1.2624999999999165,0.048744
1.2629999999999164,0.010583
1.2634999999999164,-0.02692
1.2639999999999163,-0.061133
1.2644999999999162,-0.10686
1.2649999999999162,-0.15686
1.2654999999999161,-0.1845
1.265999999999916,-0.17101
1.266499999999916,-0.14995
1.266999999999916,-0.14667
1.267499999999916,-0.1437
1.2679999999999159,-0.12364
1.2684999999999158,-0.095346
1.2689999999999158,-0.075279
1.2694999999999157,-0.064422
1.2699999999999156,-0.054224
1.2704999999999156,-0.03975
1.2709999999999155,-0.029551
1.2714999999999155,-0.032183
1.2719999999999154,-0.032841
1.2724999999999154,-0.025275
1.2729999999999153,-0.018695
1.2734999999999153,-0.020011
1.2739999999999152,-0.021985
1.2744999999999151,-0.018366
1.274999999999915,-0.014419
1.275499999999915,-0.018037
1.275999999999915,-0.018695
1.276499999999915,-0.015077
1.2769999999999149,-0.011129
1.2774999999999148,-0.0088255
1.2779999999999148,-0.0081675
1.2784999999999147,-0.0055355
1.2789999999999146,0.0053205
1.2794999999999146,0.01815
1.2799999999999145,0.031308
1.2804999999999145,0.038546
1.2809999999999144,0.046441
1.2814999999999144,0.066508
1.2819999999999143,0.080325
1.2824999999999143,0.080325
1.2829999999999142,0.06914
1.2834999999999142,0.051376
1.283999999999914,0.037888
1.284499999999914,0.036243
1.284999999999914,0.038546
1.285499999999914,0.026045
1.2859999999999139,0.0076225
1.2864999999999138,-0.0019175
1.2869999999999138,-0.0032335
1.2874999999999137,-0.0048775
1.2879999999999137,-0.0088255
1.2884999999999136,-0.011129
1.2889999999999135,-0.014748
1.2894999999999135,-0.018037
1.2899999999999134,-0.016064
1.2904999999999134,-0.0075095
1.2909999999999133,0.0079515
1.2914999999999133,0.022426
1.2919999999999132,0.026374
1.2924999999999132,0.023084
1.292999999999913,0.015518
1.293499999999913,0.0076225
1.293999999999913,0.0063075
1.294499999999913,0.010254
1.2949999999999129,0.010254
1.2954999999999128,0.012557
1.2959999999999128,0.020781
1.2964999999999127,0.028677
1.2969999999999127,0.030979
1.2974999999999126,0.02769
1.2979999999999126,0.015189
1.2984999999999125,0.00071445
1.2989999999999124,-0.00093055
1.2994999999999124,-0.0048775
1.2999999999999123,-0.0088255
1.3004999999999123,-0.0081675
1.3009999999999122,-0.016064
1.3014999999999122,-0.032512
1.3019999999999121,-0.041723
1.302499999999912,-0.034815
1.302999999999912,-0.026262
1.303499999999912,-0.024288
1.303999999999912,-0.018366
1.3044999999999118,-0.0058645
1.3049999999999118,0.0066365
1.3054999999999117,0.01157
1.3059999999999117,0.0095965
1.3064999999999116,0.0082805
1.3069999999999116,0.0082805
1.3074999999999115,0.0056495
1.3079999999999115,0.0020305
1.3084999999999114,0.0010435
1.3089999999999113,-0.00060155
1.3094999999999113,-0.0075095
1.3099999999999112,-0.012774
1.3104999999999112,-0.0075095
1.3109999999999111,0.0020305
1.311499999999911,0.0036755
1.311999999999911,-0.0045495
1.312499999999911,-0.0078385
1.312999999999911,-0.0045495
1.3134999999999108,-0.0084965
1.3139999999999108,-0.010142
1.3144999999999107,-0.0022465
1.3149999999999107,0.0053205
1.3154999999999106,0.014202
1.3159999999999106,0.022097
1.3164999999999105,0.019465
1.3169999999999105,0.011899
1.3174999999999104,0.0043335
1.3179999999999104,-0.00060155
1.3184999999999103,-0.0022465
1.3189999999999102,-0.0042205
1.3194999999999102,-0.0045495
1.3199999999999101,-0.0048775
1.32049999999991,-0.0032335
1.32099999999991,0.0010435
1.32149999999991,0.0030175
1.32199999999991,0.00071445
1.3224999999999099,-0.0048775
1.3229999999999098,-0.0071805
1.3234999999999097,-0.0042205
1.3239999999999097,5.6451e-05
1.3244999999999096,0.0056495
1.3249999999999096,0.010254
1.3254999999999095,0.011899
1.3259999999999095,0.01486
1.3264999999999094,0.018808
1.3269999999999094,0.016505
1.3274999999999093,0.0095965
1.3279999999999093,0.0076225
1.3284999999999092,0.0020305
1.3289999999999091,-0.012116
1.329499999999909,-0.022643
1.329999999999909,-0.020998
1.330499999999909,-0.016721
1.330999999999909,-0.018037
1.3314999999999089,-0.016393
1.3319999999999088,-0.0068515
1.3324999999999088,-0.00027255
1.3329999999999087,-0.0091545
1.3334999999999086,-0.01409
1.3339999999999086,-0.0045495
1.3344999999999085,0.0046625
1.3349999999999085,0.011241
1.3354999999999084,0.019794
1.3359999999999084,0.029664
1.3364999999999083,0.032295
1.3369999999999083,0.029664
1.3374999999999082,0.023742
1.3379999999999082,0.012557
1.338499999999908,0.0026885
1.338999999999908,-0.010471
1.339499999999908,-0.027578
1.339999999999908,-0.033499
1.3404999999999079,-0.032841
1.3409999999999078,-0.034815
1.3414999999999078,-0.031854
1.3419999999999077,-0.024946
1.3424999999999077,-0.019024
1.3429999999999076,-0.012116
1.3434999999999075,-0.0071805
1.3439999999999075,-0.012445
1.3444999999999074,-0.014419
1.3449999999999074,-0.0058645
1.3454999999999073,-0.0022465
1.3459999999999073,-0.0091545
1.3464999999999072,-0.01409
1.3469999999999072,-0.015406
1.347499999999907,-0.013761
1.347999999999907,-0.0081675
1.348499999999907,0.00071445
1.348999999999907,5.6451e-05
1.3494999999999069,-0.0022465
1.3499999999999068,-0.00027255
1.3504999999999068,0.0017015
1.3509999999999067,0.0013725
1.3514999999999067,-0.0012595
1.3519999999999066,-0.0032335
1.3524999999999066,-0.00060155
1.3529999999999065,0.0059785
1.3534999999999064,0.0099255
1.3539999999999064,0.015189
1.3544999999999063,0.034598
1.3549999999999063,0.055652
1.3554999999999062,0.062232
1.3559999999999062,0.056639
1.3564999999999061,0.045783
1.356999999999906,0.03723
1.357499999999906,0.032624
1.357999999999906,0.029335
1.358499999999906,0.024729
1.3589999999999058,0.011899
1.3594999999999058,-0.011129
1.3599999999999057,-0.02692
1.3604999999999057,-0.028564
1.3609999999999056,-0.027249
1.3614999999999056,-0.020998
1.3619999999999055,-0.015735
1.3624999999999055,-0.023959
1.3629999999999054,-0.034157
1.3634999999999053,-0.036789
1.3639999999999053,-0.041394
1.3644999999999052,-0.041065
1.3649999999999052,-0.028893
1.3654999999999051,-0.017708
1.365999999999905,-0.0065225
1.366499999999905,0.012557
1.366999999999905,0.04348
1.367499999999905,0.063548
1.3679999999999048,0.064864
1.3684999999999048,0.052692
1.3689999999999047,0.042165
1.3694999999999047,0.054337
1.3699999999999046,0.076049
1.3704999999999046,0.077365
1.3709999999999045,0.060916
1.3714999999999045,0.047099
1.3719999999999044,0.02769
1.3724999999999044,-0.0078385
1.3729999999999043,-0.027907
1.3734999999999042,-0.014419
1.3739999999999042,-0.00060155
1.3744999999999041,-0.016064
1.374999999999904,-0.035144
1.375499999999904,-0.043039
1.375999999999904,-0.064093
1.376499999999904,-0.097649
1.3769999999999039,-0.12068
1.3774999999999038,-0.12166
1.3779999999999037,-0.091398
1.3784999999999037,-0.020011
1.3789999999999036,0.052692
1.3794999999999036,0.063219
1.3799999999999035,0.026045
1.3804999999999035,0.019465
1.3809999999999034,0.054994
1.3814999999999034,0.076378
1.3819999999999033,0.069798
1.3824999999999033,0.059271
1.3829999999999032,0.023084
1.3834999999999031,-0.027249
1.383999999999903,-0.046987
1.384499999999903,-0.034486
1.384999999999903,-0.022314
1.385499999999903,-0.015077
1.3859999999999029,-0.0088255
1.3864999999999028,0.00071445
1.3869999999999028,0.022097
1.3874999999999027,0.045783
1.3879999999999026,0.060916
1.3884999999999026,0.061574
1.3889999999999025,0.047099
1.3894999999999025,0.032295
1.3899999999999024,0.015847
1.3904999999999024,-0.012116
1.3909999999999023,-0.037776
1.3914999999999023,-0.055211
1.3919999999999022,-0.078568
1.3924999999999021,-0.11146
1.392999999999902,-0.1289
1.393499999999902,-0.12726
1.393999999999902,-0.12199
1.394499999999902,-0.12035
1.3949999999999019,-0.11278
1.3954999999999018,-0.096004
1.3959999999999018,-0.073963
1.3964999999999017,-0.054224
1.3969999999999017,-0.039421
1.3974999999999016,-0.029551
1.3979999999999015,-0.020669
1.3984999999999015,-0.015735
1.3989999999999014,-0.0098125
1.3994999999999014,0.00038545
1.3999999999999013,0.0086095
1.4004999999999013,0.017163
1.4009999999999012,0.03394
1.4014999999999012,0.054337
1.401999999999901,0.069469
1.402499999999901,0.10467
1.402999999999901,0.18461
1.403499999999901,0.25534
1.4039999999999009,0.27245
1.4044999999999008,0.26652
1.4049999999999008,0.28988
1.4054999999999007,0.34219
1.4059999999999007,0.37344
1.4064999999999006,0.34285
1.4069999999999006,0.25797
1.4074999999999005,0.1606
1.4079999999999004,0.07572
1.4084999999999004,-0.00093055
1.4089999999999003,-0.082845
1.4094999999999003,-0.17068
1.4099999999999002,-0.24865
1.4104999999999002,-0.29931
1.4109999999999001,-0.31806
1.4114999999999,-0.32135
1.4119999999999,-0.31905
1.4124999999999,-0.3151
1.4129999999999,-0.2924
1.4134999999998998,-0.24536
1.4139999999998998,-0.20127
1.4144999999998997,-0.16838
1.4149999999998997,-0.13844
1.4154999999998996,-0.11212
1.4159999999998996,-0.09732
1.4164999999998995,-0.087122
1.4169999999998995,-0.072647
1.4174999999998994,-0.053895
1.4179999999998993,-0.040407
1.4184999999998993,-0.028564
1.4189999999998992,-0.015406
1.4194999999998992,-0.0048775
1.4199999999998991,0.0043335
1.420499999999899,0.013215
1.420999999999899,0.019465
1.421499999999899,0.023084
1.421999999999899,0.028019
1.4224999999998988,0.033282
1.4229999999998988,0.035256
1.4234999999998987,0.038217
1.4239999999998987,0.045454
1.4244999999998986,0.052363
1.4249999999998986,0.06289
1.4254999999998985,0.071772
1.4259999999998985,0.072101
1.4264999999998984,0.067495
1.4269999999998983,0.06289
1.4274999999998983,0.052363
1.4279999999998982,0.039533
1.4284999999998982,0.029335
1.4289999999998981,0.030322
1.429499999999898,0.036243
1.429999999999898,0.038217
1.430499999999898,0.040191
1.430999999999898,0.039204
1.4314999999998979,0.039862
1.4319999999998978,0.040849
1.4324999999998977,0.040191
1.4329999999998977,0.041178
1.4334999999998976,0.041507
1.4339999999998976,0.035256
1.4344999999998975,0.027361
1.4349999999998975,0.029664
1.4354999999998974,0.041507
1.4359999999998974,0.089866
1.4364999999998973,0.14777
1.4369999999998972,0.15763
1.4374999999998972,0.14119
1.4379999999998971,0.14974
1.438499999999897,0.17671
1.438999999999897,0.18625
1.439499999999897,0.18593
1.439999999999897,0.16257
1.4404999999998969,0.11059
1.4409999999998968,0.067166
1.4414999999998968,0.042494
1.4419999999998967,0.016176
1.4424999999998966,-0.036131
1.4429999999998966,-0.10324
1.4434999999998965,-0.15357
1.4439999999998965,-0.17298
1.4444999999998964,-0.1766
1.4449999999998964,-0.18022
1.4454999999998963,-0.18252
1.4459999999998963,-0.17792
1.4464999999998962,-0.16871
1.4469999999998961,-0.15555
1.447499999999896,-0.14239
1.447999999999896,-0.12791
1.448499999999896,-0.10554
1.448999999999896,-0.088437
1.4494999999998959,-0.077581
1.4499999999998958,-0.066067
1.4504999999998958,-0.05554
1.4509999999998957,-0.051593
1.4514999999998957,-0.044026
1.4519999999998956,-0.031854
1.4524999999998955,-0.025275
1.4529999999998955,-0.02034
1.4534999999998954,-0.015735
1.4539999999998954,-0.0068515
1.4544999999998953,0.0033465
1.4549999999998953,0.01157
1.4554999999998952,0.022426
1.4559999999998952,0.045783
1.456499999999895,0.10829
1.456999999999895,0.20073
1.457499999999895,0.28396
1.457999999999895,0.34021
1.4584999999998949,0.34252
1.4589999999998948,0.31291
1.4594999999998948,0.29909
1.4599999999998947,0.30501
1.4604999999998947,0.31883
1.4609999999998946,0.29317
1.4614999999998946,0.2004
1.4619999999998945,0.083286
1.4624999999998944,-0.01705
1.4629999999998944,-0.099622
1.4634999999998943,-0.16772
1.4639999999998943,-0.22035
1.4644999999998942,-0.2493
1.4649999999998942,-0.25095
1.465499999999894,-0.25786
1.465999999999894,-0.27661
1.466499999999894,-0.28714
1.466999999999894,-0.28023
1.467499999999894,-0.27431
1.4679999999998938,-0.27299
1.4684999999998938,-0.25391
1.4689999999998937,-0.21805
1.4694999999998937,-0.18318
1.4699999999998936,-0.15522
1.4704999999998936,-0.13252
1.4709999999998935,-0.1141
1.4714999999998934,-0.096991
1.4719999999998934,-0.080871
1.4724999999998933,-0.074621
1.4729999999998933,-0.065409
1.4734999999998932,-0.044355
1.4739999999998932,-0.021327
1.4744999999998931,-0.0081675
1.474999999999893,-0.0045495
1.475499999999893,0.0043335
1.475999999999893,0.027361
1.476499999999893,0.05006
1.4769999999998928,0.060258
1.4774999999998928,0.079009
1.4779999999998927,0.10664
1.4784999999998927,0.12375
1.4789999999998926,0.12243
1.4794999999998926,0.10664
1.4799999999998925,0.086576
1.4804999999998925,0.076049
1.4809999999998924,0.068811
1.4814999999998923,0.061903
1.4819999999998923,0.05335
1.4824999999998922,0.043809
1.4829999999998922,0.049073
1.4834999999998921,0.057297
1.483999999999892,0.055652
1.484499999999892,0.034598
1.484999999999892,0.0095965
1.485499999999892,0.0040045
1.4859999999998919,0.013544
1.4864999999998918,0.012886
1.4869999999998917,0.0033465
1.4874999999998917,-0.0012595
1.4879999999998916,0.0049915
1.4884999999998916,0.018808
1.4889999999998915,0.029006
1.4894999999998915,0.029664
1.4899999999998914,0.026374
1.4904999999998914,0.02769
1.4909999999998913,0.029664
1.4914999999998912,0.029664
1.4919999999998912,0.028677
1.4924999999998911,0.025716
1.492999999999891,0.021439
1.493499999999891,0.022426
1.493999999999891,0.021439
1.494499999999891,0.018479
1.4949999999998909,0.017163
1.4954999999998908,0.026703
1.4959999999998908,0.063548
1.4964999999998907,0.11092
1.4969999999998906,0.11717
1.4974999999998906,0.099077
1.4979999999998905,0.10105
1.4984999999998905,0.11947
1.4989999999998904,0.12309
1.4994999999998904,0.11421
1.4999999999998903,0.086247
1.5004999999998903,0.024729
1.5009999999998902,-0.026262
1.5014999999998901,-0.032841
1.50199999999989,-0.0068515
1.50249999999989,-0.00060155
1.50299999999989,-0.032512
1.50349999999989,-0.06508
1.5039999999998899,-0.069686
1.5044999999998898,-0.06837
1.5049999999998898,-0.084819
1.5054999999998897,-0.09074
1.5059999999998896,-0.081529
1.5064999999998896,-0.082516
1.5069999999998895,-0.082845
1.5074999999998895,-0.070673
1.5079999999998894,-0.05554
1.5084999999998894,-0.050277
1.5089999999998893,-0.05554
1.5094999999998893,-0.054224
1.5099999999998892,-0.044684
1.5104999999998892,-0.038105
1.510999999999889,-0.030538
1.511499999999889,-0.020998
1.511999999999889,-0.0088255
1.512499999999889,0.0040045
1.5129999999998889,0.010254
1.5134999999998888,0.0063075
1.5139999999998888,0.00038545
1.5144999999998887,-0.0012595
1.5149999999998887,-0.00093055
1.5154999999998886,0.0020305
1.5159999999998885,0.0072935
1.5164999999998885,0.012886
1.5169999999998884,0.02111
1.5174999999998884,0.033611
1.5179999999998883,0.05335
1.5184999999998883,0.096116
1.5189999999998882,0.1527
1.5194999999998882,0.18297
1.519999999999888,0.17803
1.520499999999888,0.14316
1.520999999999888,0.1152
1.521499999999888,0.11158
1.5219999999998879,0.1254
1.5224999999998878,0.13165
1.5229999999998878,0.13428
1.5234999999998877,0.16092
1.5239999999998877,0.17145
1.5244999999998876,0.11388
1.5249999999998876,0.038875
1.5254999999998875,0.030322
1.5259999999998874,0.047099
1.5264999999998874,0.027361
1.5269999999998873,-0.042052
1.5274999999998873,-0.1187
1.5279999999998872,-0.18219
1.5284999999998872,-0.23055
1.5289999999998871,-0.27398
1.529499999999887,-0.29536
1.529999999999887,-0.28944
1.530499999999887,-0.27464
1.530999999999887,-0.24601
1.5314999999998868,-0.2197
1.5319999999998868,-0.19568
1.5324999999998867,-0.16081
1.5329999999998867,-0.13482
1.5334999999998866,-0.12298
1.5339999999998866,-0.1016
1.5344999999998865,-0.07495
1.5349999999998865,-0.061462
1.5354999999998864,-0.043368
1.5359999999998863,0.00038545
1.5364999999998863,0.047757
1.5369999999998862,0.079009
1.5374999999998862,0.092826
1.5379999999998861,0.095458
1.538499999999886,0.092826
1.538999999999886,0.079667
1.539499999999886,0.056968
1.539999999999886,0.025387
1.5404999999998858,-0.0068515
1.5409999999998858,-0.015735
1.5414999999998857,-0.01705
1.5419999999998857,-0.023959
1.5424999999998856,-0.021985
1.5429999999998856,-0.016721
1.5434999999998855,-0.00093055
1.5439999999998855,0.044138
1.5444999999998854,0.097761
1.5449999999998854,0.12737
1.5454999999998853,0.15731
1.5459999999998852,0.20632
1.5464999999998852,0.24646
1.5469999999998851,0.24383
1.547499999999885,0.21751
1.547999999999885,0.16816
1.548499999999885,0.10467
1.548999999999885,0.074404
1.5494999999998849,0.08526
1.5499999999998848,0.07243
1.5504999999998847,-0.0019175
1.5509999999998847,-0.095675
1.5514999999998846,-0.16081
1.5519999999998846,-0.19502
1.5524999999998845,-0.2141
1.5529999999998845,-0.21937
1.5534999999998844,-0.20095
1.5539999999998844,-0.18121
1.5544999999998843,-0.16739
1.5549999999998843,-0.14403
1.5554999999998842,-0.11837
1.5559999999998841,-0.095017
1.556499999999884,-0.071002
1.556999999999884,-0.05554
1.557499999999884,-0.048961
1.557999999999884,-0.03975
1.5584999999998839,-0.023301
1.5589999999998838,-0.014748
1.5594999999998838,-0.0094835
1.5599999999998837,-0.0022465
1.5604999999998836,0.0023595
1.5609999999998836,0.0063075
1.5614999999998835,0.0079515
1.5619999999998835,0.0099255
1.5624999999998834,0.010254
1.5629999999998834,0.01157
1.5634999999998833,0.01815
1.5639999999998833,0.026374
1.5644999999998832,0.028348
1.5649999999998832,0.026703
1.565499999999883,0.033282
1.565999999999883,0.044796
1.566499999999883,0.050718
1.566999999999883,0.046112
1.5674999999998829,0.047099
1.5679999999998828,0.051047
1.5684999999998828,0.05335
1.5689999999998827,0.056639
1.5694999999998827,0.058613
1.5699999999998826,0.056639
1.5704999999998825,0.054008
1.5709999999998825,0.050718
1.5714999999998824,0.046112
1.5719999999998824,0.044467
1.5724999999998823,0.046441
1.5729999999998823,0.046112
1.5734999999998822,0.039204
1.5739999999998822,0.034598
1.574499999999882,0.030322
1.574999999999882,0.024729
1.575499999999882,0.020781
1.575999999999882,0.023084
1.5764999999998819,0.030322
1.5769999999998818,0.035585
1.5774999999998818,0.0244
1.5779999999998817,0.0059785
1.5784999999998817,-0.0029045
1.5789999999998816,-0.0015885
1.5794999999998816,0.0033465
1.5799999999998815,0.010254
1.5804999999998814,0.0095965
1.5809999999998814,0.0040045
1.5814999999998813,-0.00060155
1.5819999999998813,-0.00060155
1.5824999999998812,0.0036755
1.5829999999998812,0.0082805
1.5834999999998811,0.010583
1.583999999999881,0.012886
1.584499999999881,0.011899
1.584999999999881,0.0049915
1.585499999999881,-0.0038915
1.5859999999998808,-0.0012595
1.5864999999998808,0.022756
1.5869999999998807,0.054994
1.5874999999998807,0.081312
1.5879999999998806,0.099406
1.5884999999998806,0.1073
1.5889999999998805,0.12309
1.5894999999998805,0.14546
1.5899999999998804,0.14184
1.5904999999998803,0.10697
1.5909999999998803,0.074404
1.5914999999998802,0.059929
1.5919999999998802,0.034927
1.5924999999998801,-0.024617
1.59299999999988,-0.095346
1.59349999999988,-0.14074
1.59399999999988,-0.1516
1.59449999999988,-0.14403
1.5949999999998798,-0.13022
1.5954999999998798,-0.12166
1.5959999999998797,-0.11706
1.5964999999998797,-0.10456
1.5969999999998796,-0.086135
1.5974999999998796,-0.075936
1.5979999999998795,-0.073963
1.5984999999998795,-0.074621
1.5989999999998794,-0.072647
1.5994999999998794,-0.064751
1.5999999999998793,-0.052908
1.6004999999998792,-0.048303
1.6009999999998792,-0.047974
1.6014999999998791,-0.04271
1.601999999999879,-0.030209
1.602499999999879,-0.01409
1.602999999999879,-0.0042205
1.603499999999879,-0.0068515
1.6039999999998789,-0.0088255
1.6044999999998788,0.0059785
1.6049999999998787,0.020123
1.6054999999998787,0.016505
1.6059999999998786,0.0020305
1.6064999999998786,-0.0015885
1.6069999999998785,0.0079515
1.6074999999998785,0.025716
1.6079999999998784,0.056968
1.6084999999998784,0.10763
1.6089999999998783,0.17902
1.6094999999998783,0.28593
1.6099999999998782,0.36982
1.6104999999998781,0.36752
1.610999999999878,0.33034
1.611499999999878,0.306
1.611999999999878,0.28166
1.612499999999878,0.24152
1.6129999999998779,0.1606
1.6134999999998778,0.037888
1.6139999999998778,-0.071331
1.6144999999998777,-0.15982
1.6149999999998776,-0.24207
1.6154999999998776,-0.32069
1.6159999999998775,-0.37859
1.6164999999998775,-0.37596
1.6169999999998774,-0.32036
1.6174999999998774,-0.26674
1.6179999999998773,-0.23417
1.6184999999998773,-0.22299
1.6189999999998772,-0.21937
1.6194999999998771,-0.19239
1.619999999999877,-0.1493
1.620499999999877,-0.12462
1.620999999999877,-0.11837
1.621499999999877,-0.10324
1.6219999999998769,-0.076265
1.6224999999998768,-0.049948
1.6229999999998768,-0.03317
1.6234999999998767,-0.026591
1.6239999999998767,-0.031196
1.6244999999998766,-0.026262
1.6249999999998765,-0.0088255
1.6254999999998765,0.022426
1.6259999999998764,0.059929
1.6264999999998764,0.082957
1.6269999999998763,0.088221
1.6274999999998763,0.090523
1.6279999999998762,0.10006
1.6284999999998762,0.11158
1.628999999999876,0.11092
1.629499999999876,0.098748
1.629999999999876,0.079338
1.630499999999876,0.05335
1.6309999999998759,0.022097
1.6314999999998758,-0.0012595
1.6319999999998758,-0.0071805
1.6324999999998757,-0.0061935
1.6329999999998757,-0.011458
1.6334999999998756,-0.027907
1.6339999999998756,-0.041723
1.6344999999998755,-0.035144
1.6349999999998754,-0.020011
1.6354999999998754,-0.013103
1.6359999999998753,-0.013103
1.6364999999998753,-0.0075095
1.6369999999998752,0.0066365
1.6374999999998752,0.016176
1.6379999999998751,0.021768
1.638499999999875,0.030651
1.638999999999875,0.036572
1.639499999999875,0.031966
1.639999999999875,0.024729
1.6404999999998748,0.025716
1.6409999999998748,0.027361
1.6414999999998747,0.025058
1.6419999999998747,0.024729
1.6424999999998746,0.028677
1.6429999999998746,0.028019
1.6434999999998745,0.035585
1.6439999999998745,0.055652
1.6444999999998744,0.065522
1.6449999999998743,0.060916
1.6454999999998743,0.051047
1.6459999999998742,0.052034
1.6464999999998742,0.063548
1.6469999999998741,0.068482
1.647499999999874,0.062561
1.647999999999874,0.054994
1.648499999999874,0.042165
1.648999999999874,0.028348
1.6494999999998738,0.026703
1.6499999999998738,0.028019
1.6504999999998737,0.020123
1.6509999999998737,0.0056495
1.6514999999998736,-0.00093055
1.6519999999998736,0.0040045
1.6524999999998735,0.016834
1.6529999999998735,0.014531
1.6534999999998734,0.0040045
1.6539999999998733,-0.0075095
1.6544999999998733,-0.02034
1.6549999999998732,-0.035802
1.6554999999998732,-0.056856
1.6559999999998731,-0.063765
1.656499999999873,-0.044026
1.656999999999873,-0.017379
1.657499999999873,-0.0045495
1.657999999999873,-0.0025755
1.6584999999998729,-0.0075095
1.6589999999998728,-0.017379
1.6594999999998727,-0.021327
1.6599999999998727,-0.027578
1.6604999999998726,-0.04271
1.6609999999998726,-0.049619
1.6614999999998725,-0.045342
1.6619999999998725,-0.048961
1.6624999999998724,-0.058172
1.6629999999998724,-0.057514
1.6634999999998723,-0.053237
1.6639999999998722,-0.052579
1.6644999999998722,-0.048961
1.6649999999998721,-0.03975
1.665499999999872,-0.02988
1.665999999999872,-0.022972
1.666499999999872,-0.010471
1.666999999999872,0.0059785
1.6674999999998719,0.011899
1.6679999999998718,0.01157
1.6684999999998718,0.01486
1.6689999999998717,0.019794
1.6694999999998716,0.021439
1.6699999999998716,0.040191
1.6704999999998715,0.1175
1.6709999999998715,0.20007
1.6714999999998714,0.23363
1.6719999999998714,0.25698
1.6724999999998713,0.2935
1.6729999999998713,0.29646
1.6734999999998712,0.25402
1.6739999999998711,0.19316
1.674499999999871,0.11849
1.674999999999871,0.0596
1.675499999999871,0.029335
1.675999999999871,-0.0068515
1.6764999999998709,-0.074621
1.6769999999998708,-0.15818
1.6774999999998708,-0.24305
1.6779999999998707,-0.28615
1.6784999999998707,-0.28319
1.6789999999998706,-0.26312
1.6794999999998705,-0.24437
1.6799999999998705,-0.22463
1.6804999999998704,-0.19897
1.6809999999998704,-0.16805
1.6814999999998703,-0.13482
1.6819999999998703,-0.11048
1.6824999999998702,-0.092714
1.6829999999998702,-0.075279
1.68349999999987,-0.066067
1.68399999999987,-0.071002
1.68449999999987,-0.071989
1.68499999999987,-0.056198
1.6854999999998699,-0.039421
1.6859999999998698,-0.030538
1.6864999999998698,-0.012116
1.6869999999998697,0.019794
1.6874999999998697,0.044467
1.6879999999998696,0.064206
1.6884999999998695,0.10105
1.6889999999998695,0.1527
1.6894999999998694,0.18297
1.6899999999998694,0.18033
1.6904999999998693,0.17211
1.6909999999998693,0.18428
1.6914999999998692,0.19382
1.6919999999998692,0.18033
1.692499999999869,0.14217
1.692999999999869,0.10928
1.693499999999869,0.093484
1.693999999999869,0.054994
1.6944999999998689,-0.0081675
1.6949999999998688,-0.056856
1.6954999999998688,-0.085806
1.6959999999998687,-0.11278
1.6964999999998687,-0.14897
1.6969999999998686,-0.16936
1.6974999999998686,-0.16311
1.6979999999998685,-0.14436
1.6984999999998684,-0.12462
1.6989999999998684,-0.10686
1.6994999999998683,-0.092714
1.6999999999998683,-0.083174
1.7004999999998682,-0.072318
1.7009999999998682,-0.056856
1.7014999999998681,-0.043368
1.701999999999868,-0.031196
1.702499999999868,-0.019024
1.702999999999868,-0.0048775
1.703499999999868,0.0099255
1.7039999999998678,0.015518
1.7044999999998678,0.013215
1.7049999999998677,0.017163
1.7054999999998677,0.028019
1.7059999999998676,0.035914
1.7064999999998676,0.038217
1.7069999999998675,0.040191
1.7074999999998675,0.047099
1.7079999999998674,0.05006
1.7084999999998673,0.041836
1.7089999999998673,0.036901
1.7094999999998672,0.03394
1.7099999999998672,0.026045
1.7104999999998671,0.022756
1.710999999999867,0.030979
1.711499999999867,0.04348
1.711999999999867,0.043809
1.712499999999867,0.043809
1.7129999999998669,0.062232
1.7134999999998668,0.094471
1.7139999999998667,0.11224
1.7144999999998667,0.098748
1.7149999999998666,0.085589
1.7154999999998666,0.11224
1.7159999999998665,0.15105
1.7164999999998665,0.13592
1.7169999999998664,0.093155
1.7174999999998664,0.093155
1.7179999999998663,0.11388
1.7184999999998662,0.087234
1.7189999999998662,0.011899
1.7194999999998661,-0.059159
1.719999999999866,-0.10456
1.720499999999866,-0.12528
1.720999999999866,-0.14732
1.721499999999866,-0.16081
1.7219999999998659,-0.14831
1.7224999999998658,-0.12364
1.7229999999998658,-0.10324
1.7234999999998657,-0.085477
1.7239999999998656,-0.073963
1.7244999999998656,-0.066067
1.7249999999998655,-0.051593
1.7254999999998655,-0.037118
1.7259999999998654,-0.030209
1.7264999999998654,-0.025604
1.7269999999998653,-0.014748
1.7274999999998653,0.010583
1.7279999999998652,0.035585
1.7284999999998651,0.064864
1.728999999999865,0.12441
1.729499999999865,0.2254
1.729999999999865,0.34153
1.730499999999865,0.37706
1.7309999999998649,0.32574
1.7314999999998648,0.2606
1.7319999999998648,0.22409
1.7324999999998647,0.20172
1.7329999999998646,0.1856
1.7334999999998646,0.14119
1.7339999999998645,0.0066365
1.7344999999998645,-0.1516
1.7349999999998644,-0.23845
1.7354999999998644,-0.24634
1.7359999999998643,-0.24108
1.7364999999998643,-0.25884
1.7369999999998642,-0.27628
1.7374999999998642,-0.27562
1.737999999999864,-0.27003
1.738499999999864,-0.25917
1.738999999999864,-0.23483
1.739499999999864,-0.21476
1.7399999999998639,-0.20029
1.7404999999998638,-0.17989
1.7409999999998638,-0.1493
1.7414999999998637,-0.11903
1.7419999999998637,-0.097649
1.7424999999998636,-0.084161
1.7429999999998635,-0.069028
1.7434999999998635,-0.053566
1.7439999999998634,-0.041723
1.7444999999998634,-0.031854
1.7449999999998633,-0.018037
1.7454999999998633,-0.0052065
1.7459999999998632,-0.0012595
1.7464999999998632,0.0023595
1.746999999999863,0.016505
1.747499999999863,0.036243
1.747999999999863,0.050718
1.748499999999863,0.054008
1.7489999999998629,0.055981
1.7494999999998628,0.064535
1.7499999999998628,0.072101
1.7504999999998627,0.07868
1.7509999999998627,0.082299
1.7514999999998626,0.080325
1.7519999999998626,0.07868
1.7524999999998625,0.076707
1.7529999999998624,0.074733
1.7534999999998624,0.076707
1.7539999999998623,0.076707
1.7544999999998623,0.068153
1.7549999999998622,0.055981
1.7554999999998622,0.047428
1.7559999999998621,0.045125
1.756499999999862,0.037888
1.756999999999862,0.025716
1.757499999999862,0.019794
1.757999999999862,0.015518
1.7584999999998618,0.016505
1.7589999999998618,0.017492
1.7594999999998617,0.016834
1.7599999999998617,0.020781
1.7604999999998616,0.02769
1.7609999999998616,0.027361
1.7614999999998615,0.021439
1.7619999999998615,0.019794
1.7624999999998614,0.019465
1.7629999999998613,0.019794
1.7634999999998613,0.025058
1.7639999999998612,0.028019
1.7644999999998612,0.02769
1.7649999999998611,0.033611
1.765499999999861,0.036243
1.765999999999861,0.034598
1.766499999999861,0.029335
1.766999999999861,0.033282
1.7674999999998608,0.043809
1.7679999999998608,0.060587
1.7684999999998607,0.078023
1.7689999999998607,0.081312
1.7694999999998606,0.068153
1.7699999999998606,0.051705
1.7704999999998605,0.04052
1.7709999999998605,0.029993
1.7714999999998604,0.012886
1.7719999999998604,-0.0068515
1.7724999999998603,-0.022314
1.7729999999998602,-0.030538
1.7734999999998602,-0.02692
1.7739999999998601,-0.030209
1.77449999999986,-0.05225
1.77499999999986,-0.081529
1.77549999999986,-0.096004
1.77599999999986,-0.089424
1.7764999999998599,-0.071989
1.7769999999998598,-0.058172
1.7774999999998597,-0.034815
1.7779999999998597,-0.0032335
1.7784999999998596,0.012557
1.7789999999998596,0.023084
1.7794999999998595,0.040191
1.7799999999998595,0.043151
1.7804999999998594,0.031308
1.7809999999998594,0.028019
1.7814999999998593,0.038217
1.7819999999998593,0.045783
1.7824999999998592,0.047099
1.7829999999998591,0.036243
1.783499999999859,0.0244
1.783999999999859,0.022756
1.784499999999859,0.040191
1.784999999999859,0.069469
1.7854999999998589,0.078023
1.7859999999998588,0.059271
1.7864999999998588,0.052034
1.7869999999998587,0.072759
1.7874999999998586,0.10401
1.7879999999998586,0.14053
1.7884999999998585,0.1731
1.7889999999998585,0.1527
1.7894999999998584,0.088221
1.7899999999998584,0.037559
1.7904999999998583,-0.0084965
1.7909999999998583,-0.073305
1.7914999999998582,-0.14469
1.7919999999998582,-0.197
1.792499999999858,-0.21345
1.792999999999858,-0.21739
1.793499999999858,-0.21739
1.793999999999858,-0.20654
1.7944999999998579,-0.18285
1.7949999999998578,-0.1641
1.7954999999998578,-0.16081
1.7959999999998577,-0.15851
1.7964999999998577,-0.14305
1.7969999999998576,-0.11772
1.7974999999998575,-0.092385
1.7979999999998575,-0.074292
1.7984999999998574,-0.063436
1.7989999999998574,-0.060475
1.7994999999998573,-0.046
1.7999999999998573,-0.018695
1.8004999999998572,0.0046625
1.8009999999998572,0.0095965
1.801499999999857,0.018479
1.801999999999857,0.072101
1.802499999999857,0.12934
1.802999999999857,0.14678
1.8034999999998569,0.14678
1.8039999999998568,0.14645
1.8044999999998568,0.12967
1.8049999999998567,0.089537
1.8054999999998567,0.055323
1.8059999999998566,0.016834
1.8064999999998566,-0.02988
1.8069999999998565,-0.04929
1.8074999999998564,-0.045013
1.8079999999998564,-0.046658
1.8084999999998563,-0.061791
1.8089999999998563,-0.070015
1.8094999999998562,-0.06212
1.8099999999998562,-0.053895
1.8104999999998561,-0.061791
1.810999999999856,-0.065409
1.811499999999856,-0.04929
1.811999999999856,-0.038763
1.812499999999856,-0.036131
1.8129999999998558,-0.034815
1.8134999999998558,-0.03317
1.8139999999998557,-0.028564
1.8144999999998557,-0.013432
1.8149999999998556,0.016176
1.8154999999998556,0.043809
1.8159999999998555,0.056639
1.8164999999998555,0.055981
1.8169999999998554,0.055323
1.8174999999998553,0.06289
1.8179999999998553,0.069469
1.8184999999998552,0.06618
1.8189999999998552,0.049402
1.8194999999998551,0.029664
1.819999999999855,0.01157
1.820499999999855,-0.0038915
1.820999999999855,-0.016393
1.821499999999855,-0.022972
1.8219999999998548,-0.021656
1.8224999999998548,-0.012116
1.8229999999998547,5.6451e-05
1.8234999999998547,0.0040045
1.8239999999998546,-0.0012595
1.8244999999998546,-0.00027255
1.8249999999998545,0.012228
1.8254999999998545,0.023742
1.8259999999998544,0.026045
1.8264999999998544,0.022097
1.8269999999998543,0.020781
1.8274999999998542,0.028019
1.8279999999998542,0.052034
1.8284999999998541,0.096774
1.828999999999854,0.13822
1.829499999999854,0.14415
1.829999999999854,0.13033
1.830499999999854,0.11421
1.8309999999998539,0.098748
1.8314999999998538,0.079996
1.8319999999998537,0.050389
1.8324999999998537,0.02111
1.8329999999998536,0.0056495
1.8334999999998536,-0.0068515
1.8339999999998535,-0.027249
1.8344999999998535,-0.06212
1.8349999999998534,-0.10653
1.8354999999998534,-0.13219
1.8359999999998533,-0.13219
1.8364999999998532,-0.11607
1.8369999999998532,-0.097978
1.8374999999998531,-0.075936
1.837999999999853,-0.057185
1.838499999999853,-0.047645
1.838999999999853,-0.042052
1.839499999999853,-0.03317
1.8399999999998529,-0.021656
1.8404999999998528,-0.013103
1.8409999999998528,-0.010142
1.8414999999998527,0.0026885
1.8419999999998526,0.035256
1.8424999999998526,0.053021
1.8429999999998525,0.050389
1.8434999999998525,0.063219
1.8439999999998524,0.093813
1.8444999999998524,0.11487
1.8449999999998523,0.12046
1.8454999999998523,0.11651
1.8459999999998522,0.10895
1.8464999999998521,0.08855
1.846999999999852,0.047428
1.847499999999852,0.0095965
1.847999999999852,-0.0061935
1.848499999999852,0.0010435
1.8489999999998519,0.012886
1.8494999999998518,0.01157
1.8499999999998518,-0.0052065
1.8504999999998517,-0.015406
1.8509999999998517,-0.00027255
1.8514999999998516,0.011899
1.8519999999998515,-0.0052065
1.8524999999998515,-0.029222
1.8529999999998514,-0.036789
1.8534999999998514,-0.046
1.8539999999998513,-0.075608
1.8544999999998513,-0.10028
1.8549999999998512,-0.11146
1.8554999999998512,-0.11969
1.855999999999851,-0.12429
1.856499999999851,-0.12232
1.856999999999851,-0.11114
1.857499999999851,-0.091069
1.8579999999998509,-0.073634
1.8584999999998508,-0.061791
1.8589999999998508,-0.053237
1.8594999999998507,-0.045013
1.8599999999998507,-0.032512
1.8604999999998506,-0.013103
1.8609999999998506,0.0053205
1.8614999999998505,0.010912
1.8619999999998504,0.0092675
1.8624999999998504,0.0066365
1.8629999999998503,0.0026885
1.8634999999998503,0.0043335
1.8639999999998502,0.017163
1.8644999999998502,0.033282
1.86499999999985,0.042494
1.86549999999985,0.047428
1.86599999999985,0.062232
1.86649999999985,0.10763
1.86699999999985,0.1754
1.8674999999998498,0.20599
1.8679999999998498,0.18395
1.8684999999998497,0.17112
1.8689999999998497,0.17935
1.8694999999998496,0.17869
1.8699999999998496,0.16092
1.8704999999998495,0.13395
1.8709999999998495,0.090852
1.8714999999998494,0.019794
1.8719999999998493,-0.057843
1.8724999999998493,-0.11015
1.8729999999998492,-0.14338
1.8734999999998492,-0.17956
1.8739999999998491,-0.19864
1.874499999999849,-0.1868
1.874999999999849,-0.16147
1.875499999999849,-0.14535
1.875999999999849,-0.13515
1.8764999999998488,-0.11739
1.8769999999998488,-0.096333
1.8774999999998487,-0.075936
1.8779999999998487,-0.059488
1.8784999999998486,-0.051593
1.8789999999998486,-0.044026
1.8794999999998485,-0.026591
1.8799999999998485,0.01157
1.8804999999998484,0.07243
1.8809999999998483,0.097103
1.8814999999998483,0.078351
1.8819999999998482,0.056639
1.8824999999998482,0.049402
1.8829999999998481,0.044796
1.883499999999848,0.030979
1.883999999999848,0.00071445
1.884499999999848,-0.050606
1.884999999999848,-0.087122
1.8854999999998479,-0.083832
1.8859999999998478,-0.046658
1.8864999999998477,-0.013103
1.8869999999998477,-0.0078385
1.8874999999998476,-0.018695
1.8879999999998476,-0.024288
1.8884999999998475,-0.011129
1.8889999999998475,0.0053205
1.8894999999998474,0.011899
1.8899999999998474,0.012228
1.8904999999998473,0.026374
1.8909999999998472,0.04348
1.8914999999998472,0.044796
1.8919999999998471,0.038217
1.892499999999847,0.031637
1.892999999999847,0.019794
1.893499999999847,0.0076225
1.893999999999847,-0.0019175
1.8944999999998469,-0.018695
1.8949999999998468,-0.037776
1.8954999999998468,-0.045671
1.8959999999998467,-0.032512
1.8964999999998466,-0.011787
1.8969999999998466,0.0049915
1.8974999999998465,0.01815
1.8979999999998465,0.029993
1.8984999999998464,0.04052
1.8989999999998464,0.044138
1.8994999999998463,0.041507
1.8999999999998463,0.042822
1.9004999999998462,0.044796
1.9009999999998461,0.037888
1.901499999999846,0.035914
1.901999999999846,0.044138
1.902499999999846,0.047099
1.902999999999846,0.036901
1.9034999999998459,0.016505
1.9039999999998458,0.0072935
1.9044999999998458,0.012557
1.9049999999998457,0.0099255
1.9054999999998457,-0.0055355
1.9059999999998456,-0.022314
1.9064999999998455,-0.025275
1.9069999999998455,-0.013432
1.9074999999998454,0.0017015
1.9079999999998454,0.014531
1.9084999999998453,0.012228
1.9089999999998453,-0.00093055
1.9094999999998452,-0.011129
1.9099999999998452,-0.0088255
1.910499999999845,0.00038545
1.910999999999845,0.0082805
1.911499999999845,0.0095965
1.911999999999845,0.0053205
1.9124999999998449,0.00038545
1.9129999999998448,0.0010435
1.9134999999998448,0.0043335
1.9139999999998447,-0.0035625
1.9144999999998447,-0.0108
1.9149999999998446,-0.0022465
1.9154999999998445,0.01486
1.9159999999998445,0.034598
1.9164999999998444,0.047099
1.9169999999998444,0.04677
1.9174999999998443,0.035256
1.9179999999998443,0.027361
1.9184999999998442,0.030322
1.9189999999998442,0.035256
1.919499999999844,0.036243
1.919999999999844,0.029335
1.920499999999844,0.0036755
1.920999999999844,-0.019024
1.9214999999998439,-0.025275
1.9219999999998438,-0.031196
1.9224999999998438,-0.046987
1.9229999999998437,-0.056198
1.9234999999998437,-0.051922
1.9239999999998436,-0.040736
1.9244999999998436,-0.034486
1.9249999999998435,-0.02692
1.9254999999998434,-0.018366
1.9259999999998434,-0.014748
1.9264999999998433,-0.015406
1.9269999999998433,-0.015077
1.9274999999998432,-0.016721
1.9279999999998432,-0.02363
1.9284999999998431,-0.030209
1.928999999999843,-0.02988
1.929499999999843,-0.020011
1.929999999999843,-0.0052065
1.930499999999843,0.0076225
1.9309999999998428,0.019794
1.9314999999998428,0.026703
1.9319999999998427,0.021768
1.9324999999998427,0.0056495
1.9329999999998426,-0.010142
1.9334999999998426,-0.014748
1.9339999999998425,-0.013761
1.9344999999998425,-0.018695
1.9349999999998424,-0.030538
1.9354999999998423,-0.03975
1.9359999999998423,-0.021327
1.9364999999998422,0.023413
1.9369999999998422,0.04677
1.9374999999998421,0.040191
1.937999999999842,0.027032
1.938499999999842,0.028019
1.938999999999842,0.038875
1.939499999999842,0.044467
1.9399999999998419,0.034269
1.9404999999998418,0.026703
1.9409999999998417,0.017821
1.9414999999998417,-0.0038915
1.9419999999998416,-0.0048775
1.9424999999998416,0.021768
1.9429999999998415,0.039862
1.9434999999998415,0.040191
1.9439999999998414,0.054665
1.9444999999998414,0.09151
1.9449999999998413,0.12211
1.9454999999998412,0.12013
1.9459999999998412,0.09809
1.9464999999998411,0.07868
1.946999999999841,0.064535
1.947499999999841,0.032624
1.947999999999841,-0.015406
1.948499999999841,-0.050935
1.9489999999998409,-0.073963
1.9494999999998408,-0.099951
1.9499999999998407,-0.1164
1.9504999999998407,-0.087779
1.9509999999998406,-0.049619
1.9514999999998406,-0.043368
1.9519999999998405,-0.066725
1.9524999999998405,-0.073634
1.9529999999998404,-0.059488
1.9534999999998404,-0.054882
1.9539999999998403,-0.05883
1.9544999999998403,-0.055869
1.9549999999998402,-0.056856
1.9554999999998401,-0.050277
1.95599999999984,0.0017015
1.95649999999984,0.065851
1.95699999999984,0.076049
1.95749999999984,0.056968
1.9579999999998399,0.054665
1.9584999999998398,0.065193
1.9589999999998398,0.071114
1.9594999999998397,0.078351
1.9599999999998396,0.058284
1.9604999999998396,-0.0012595
1.9609999999998395,-0.052579
1.9614999999998395,-0.069357
1.9619999999998394,-0.069686
1.9624999999998394,-0.079226
1.9629999999998393,-0.093372
1.9634999999998393,-0.095017
1.9639999999998392,-0.086135
1.9644999999998392,-0.079226
1.964999999999839,-0.062449
1.965499999999839,-0.025604
1.965999999999839,0.0095965
1.966499999999839,0.0244
1.9669999999998389,0.061245
1.9674999999998388,0.11914
1.9679999999998388,0.13263
1.9684999999998387,0.094471
1.9689999999998387,0.056639
1.9694999999998386,0.036243
1.9699999999998385,0.018479
1.9704999999998385,0.0069655
1.9709999999998384,-0.011458
1.9714999999998384,-0.06212
1.9719999999998383,-0.12298
1.9724999999998383,-0.14995
1.9729999999998382,-0.14535
1.9734999999998382,-0.13416
1.973999999999838,-0.12824
1.974499999999838,-0.12791
1.974999999999838,-0.12331
1.975499999999838,-0.10686
1.9759999999998379,-0.085806
1.9764999999998378,-0.065409
1.9769999999998378,-0.040407
1.9774999999998377,-0.0088255
1.9779999999998377,0.038217
1.9784999999998376,0.082299
1.9789999999998376,0.087892
1.9794999999998375,0.074733
1.9799999999998374,0.070127
1.9804999999998374,0.070785
1.9809999999998373,0.06289
1.9814999999998373,0.048744
1.9819999999998372,0.04052
1.9824999999998372,0.04052
1.9829999999998371,0.03394
1.983499999999837,0.02111
1.983999999999837,0.010254
1.984499999999837,-0.0015885
1.984999999999837,-0.0108
1.9854999999998368,-0.016064
1.9859999999998368,-0.022643
1.9864999999998367,-0.034157
1.9869999999998367,-0.039421
1.9874999999998366,-0.019682
1.9879999999998366,0.013544
1.9884999999998365,0.041507
1.9889999999998365,0.051705
1.9894999999998364,0.051376
1.9899999999998363,0.04677
1.9904999999998363,0.042494
1.9909999999998362,0.030979
1.9914999999998362,0.012557
1.9919999999998361,-0.00027255
1.992499999999836,-0.0048775
1.992999999999836,-0.010471
1.993499999999836,-0.02034
1.993999999999836,-0.033828
1.9944999999998358,-0.041723
1.9949999999998358,-0.036789
1.9954999999998357,-0.022643
1.9959999999998357,-0.0075095
1.9964999999998356,0.0023595
1.9969999999998356,0.0049915
1.9974999999998355,0.010583
1.9979999999998355,0.020123
1.9984999999998354,0.032624
1.9989999999998354,0.039533
1.9994999999998353,0.033282
1.9999999999998352,0.021768
2.0004999999998354,0.018808
2.0009999999998356,0.025716
2.0014999999998357,0.038546
2.001999999999836,0.050389
2.002499999999836,0.048415
2.0029999999998362,0.03723
2.0034999999998364,0.026703
2.0039999999998366,0.016505
2.0044999999998367,0.014202
2.004999999999837,0.019794
2.005499999999837,0.014202
2.0059999999998372,-0.0042205
2.0064999999998374,-0.018037
2.0069999999998376,-0.017379
2.0074999999998377,-0.0055355
2.007999999999838,0.0089385
2.008499999999838,0.01815
2.0089999999998382,0.024071
2.0094999999998384,0.021768
2.0099999999998386,0.017492
2.0104999999998387,0.022097
2.010999999999839,0.031637
2.011499999999839,0.034598
2.0119999999998393,0.032624
2.0124999999998394,0.031308
2.0129999999998396,0.030322
2.0134999999998398,0.029335
2.01399999999984,0.025387
2.01449999999984,0.01486
2.0149999999998403,0.0036755
2.0154999999998404,-0.0029045
2.0159999999998406,-0.013761
2.0164999999998408,-0.027907
2.016999999999841,-0.035473
2.017499999999841,-0.03317
2.0179999999998413,-0.025604
2.0184999999998414,-0.018366
2.0189999999998416,-0.010142
2.0194999999998418,-0.0052065
2.019999999999842,-0.0038915
2.020499999999842,-0.0058645
2.0209999999998423,-0.0012595
2.0214999999998424,0.0079515
2.0219999999998426,0.019794
2.0224999999998428,0.035914
2.022999999999843,0.047757
2.023499999999843,0.045783
2.0239999999998433,0.04052
2.0244999999998434,0.045783
2.0249999999998436,0.05631
2.0254999999998438,0.06914
2.025999999999844,0.070785
2.026499999999844,0.056639
2.0269999999998443,0.036572
2.0274999999998444,0.033282
2.0279999999998446,0.038875
2.0284999999998448,0.026045
2.028999999999845,0.0036755
2.029499999999845,-0.014748
2.0299999999998453,-0.034815
2.0304999999998454,-0.056527
2.0309999999998456,-0.061133
2.0314999999998458,-0.056198
2.031999999999846,-0.052908
2.032499999999846,-0.054553
2.0329999999998463,-0.050606
2.0334999999998464,-0.029551
2.0339999999998466,-0.016721
2.0344999999998468,-0.01409
2.034999999999847,-0.0068515
2.035499999999847,0.0026885
2.0359999999998473,-0.0065225
2.0364999999998474,-0.024617
2.0369999999998476,-0.032183
2.0374999999998478,-0.042052
2.037999999999848,-0.064093
2.038499999999848,-0.093043
2.0389999999998483,-0.10818
2.0394999999998484,-0.10818
2.0399999999998486,-0.10028
2.0404999999998488,-0.088437
2.040999999999849,-0.080542
2.041499999999849,-0.073963
2.0419999999998493,-0.064093
2.0424999999998494,-0.051264
2.0429999999998496,-0.041394
2.0434999999998498,-0.037776
2.04399999999985,-0.038434
2.04449999999985,-0.031525
2.0449999999998503,-0.017708
2.0454999999998504,-0.0091545
2.0459999999998506,-0.0068515
2.0464999999998508,-0.0035625
2.046999999999851,0.0043335
2.047499999999851,0.013873
2.0479999999998513,0.018479
2.0484999999998514,0.013544
2.0489999999998516,0.010912
2.0494999999998518,0.052363
2.049999999999852,0.16882
2.050499999999852,0.27903
2.0509999999998523,0.37508
2.0514999999998524,0.4593
2.0519999999998526,0.4774
2.0524999999998528,0.41785
2.052999999999853,0.33528
2.053499999999853,0.29054
2.0539999999998533,0.24777
2.0544999999998534,0.16652
2.0549999999998536,0.066837
2.0554999999998538,-0.046329
2.055999999999854,-0.16904
2.056499999999854,-0.27003
2.0569999999998543,-0.32497
2.0574999999998544,-0.34142
2.0579999999998546,-0.33188
2.058499999999855,-0.31214
2.058999999999855,-0.2924
2.059499999999855,-0.25983
2.0599999999998553,-0.22891
2.0604999999998554,-0.21575
2.0609999999998556,-0.21081
2.061499999999856,-0.20687
2.061999999999856,-0.20193
2.062499999999856,-0.18219
2.0629999999998563,-0.15719
2.0634999999998564,-0.13252
2.0639999999998566,-0.10554
2.064499999999857,-0.084161
2.064999999999857,-0.069357
2.065499999999857,-0.055211
2.0659999999998573,-0.036789
2.0664999999998575,-0.018366
2.0669999999998576,5.6451e-05
2.067499999999858,0.017821
2.067999999999858,0.029006
2.068499999999858,0.039533
2.0689999999998583,0.051376
2.0694999999998585,0.055323
2.0699999999998586,0.049731
2.070499999999859,0.048086
2.070999999999859,0.052363
2.071499999999859,0.051705
2.0719999999998593,0.048415
2.0724999999998595,0.057626
2.0729999999998596,0.080325
2.07349999999986,0.0948
2.07399999999986,0.08855
2.07449999999986,0.069469
2.0749999999998603,0.05631
2.0754999999998605,0.054008
2.0759999999998606,0.060916
2.076499999999861,0.06618
2.076999999999861,0.058942
2.077499999999861,0.039533
2.0779999999998613,0.028677
2.0784999999998615,0.039204
2.0789999999998616,0.051047
2.079499999999862,0.051376
2.079999999999862,0.047428
2.080499999999862,0.046441
2.0809999999998623,0.039533
2.0814999999998625,0.024071
2.0819999999998626,0.012886
2.082499999999863,0.016176
2.082999999999863,0.02769
2.083499999999863,0.034598
2.0839999999998633,0.031966
2.0844999999998635,0.026045
2.0849999999998636,0.019794
2.085499999999864,0.018479
2.085999999999864,0.01815
2.086499999999864,0.015189
2.0869999999998643,0.015189
2.0874999999998645,0.019465
2.0879999999998646,0.031966
2.088499999999865,0.048744
2.088999999999865,0.067166
2.089499999999865,0.084273
2.0899999999998653,0.095787
2.0904999999998655,0.099077
2.0909999999998656,0.10039
2.091499999999866,0.095458
2.091999999999866,0.077036
2.092499999999866,0.055981
2.0929999999998663,0.032624
2.0934999999998665,0.0023595
2.0939999999998666,-0.038763
2.094499999999867,-0.069028
2.094999999999867,-0.070344
2.095499999999867,-0.073305
2.0959999999998673,-0.08449
2.0964999999998675,-0.091069
2.0969999999998676,-0.093701
2.097499999999868,-0.090411
2.097999999999868,-0.085806
2.098499999999868,-0.080213
2.0989999999998683,-0.072647
2.0994999999998685,-0.062778
2.0999999999998686,-0.049619
2.100499999999869,-0.041065
2.100999999999869,-0.032512
2.101499999999869,-0.016721
2.1019999999998693,0.0030175
2.1024999999998695,0.020452
2.1029999999998696,0.049402
2.10349999999987,0.13066
2.10399999999987,0.22244
2.10449999999987,0.26389
2.1049999999998703,0.24185
2.1054999999998705,0.19514
2.1059999999998706,0.16158
2.106499999999871,0.12474
2.106999999999871,0.074733
2.107499999999871,0.010912
2.1079999999998713,-0.040079
2.1084999999998715,-0.060146
2.1089999999998716,-0.090411
2.109499999999872,-0.14305
2.109999999999872,-0.19469
2.110499999999872,-0.22661
2.1109999999998723,-0.22726
2.1114999999998725,-0.19667
2.1119999999998726,-0.16871
2.112499999999873,-0.14699
2.112999999999873,-0.12857
2.113499999999873,-0.10982
2.1139999999998733,-0.086464
2.1144999999998735,-0.058501
2.1149999999998736,-0.036789
2.115499999999874,-0.019024
2.115999999999874,-0.0019175
2.116499999999874,0.0089385
2.1169999999998743,0.0059785
2.1174999999998745,-0.0025755
2.1179999999998746,-0.0081675
2.118499999999875,-0.0071805
2.118999999999875,-0.0075095
2.119499999999875,-0.013761
2.1199999999998753,-0.024617
2.1204999999998755,-0.046329
2.1209999999998757,-0.059488
2.121499999999876,-0.053566
2.121999999999876,-0.038105
